455,,450,,460,,465,,470,,475,,480,,485,,490,,495,,500,,505,,510,,515,,520,,525,,530,,535,,
Wavelength (nm),Intensity (a.u.),Wavelength (nm),Intensity (a.u.),Wavelength (nm),Intensity (a.u.),Wavelength (nm),Intensity (a.u.),Wavelength (nm),Intensity (a.u.),Wavelength (nm),Intensity (a.u.),Wavelength (nm),Intensity (a.u.),Wavelength (nm),Intensity (a.u.),Wavelength (nm),Intensity (a.u.),Wavelength (nm),Intensity (a.u.),Wavelength (nm),Intensity (a.u.),Wavelength (nm),Intensity (a.u.),Wavelength (nm),Intensity (a.u.),Wavelength (nm),Intensity (a.u.),Wavelength (nm),Intensity (a.u.),Wavelength (nm),Intensity (a.u.),Wavelength (nm),Intensity (a.u.),Wavelength (nm),Intensity (a.u.),
500,0.2326182425,455,3.397235155,465,2.77303195,470,3.214569807,475,2.91648984,480,2.620548487,485,2.667685032,490,1.76340878,495,1.822193146,500,2.093966007,504.9200134,2.462931871,510,4.780222893,514.9199829,11.38573074,520,28.81899071,525,67.40158081,530,153.7649384,534.9199829,296.3004761,540,498.493927,
501.0400085,0.3465511501,456.0599976,1.322974324,466.0599976,1.021512747,471.0599976,1.284415126,476.0599976,1.073938489,481.0599976,1.053128004,486.0599976,1.372109413,491.0599976,0.9666392803,496.0599976,1.005545735,501.0400085,1.356020689,505.9700012,2.16204071,511.0400085,5.073770523,515.9699707,13.12318134,521.0599976,33.71000671,526.0599976,79.66251373,531.039978,179.8616943,535.9699707,333.4251404,541.039978,547.2047729,
501.9400024,0.3555114269,456.9599915,0.5781683922,466.9599915,0.441487819,471.9599915,0.5470905304,476.9599915,0.5029467344,481.9599915,0.5179736614,486.9599915,0.6678526998,491.9599915,0.5672168732,496.9599915,0.7186613679,501.9400024,1.201527953,506.8599854,2.228600979,511.9400024,5.569044113,516.8599854,15.0378809,521.960022,38.55894852,526.960022,90.1366272,531.9400024,200.3281097,536.8599854,368.5159302,541.9400024,582.8396606,
502.980011,0.3537364304,458.0299988,0.2867087424,468.0299988,0.2129947096,473.0299988,0.2469603717,478.0299988,0.2352133393,483.0299988,0.302731663,488.0299988,0.4219385684,493.0299988,0.4521825314,498.0299988,0.6615546346,502.980011,1.158211708,507.9100037,2.493659019,512.9799805,6.675189495,517.9099731,17.93083382,523.0300293,46.67557526,528.0300293,107.3204498,532.9799805,229.6150055,537.9099731,413.6321106,542.9799805,634.8309326,
504.019989,0.4245868623,458.9299927,0.1899173558,468.9299927,0.1835535914,473.9299927,0.1744717807,478.9299927,0.2059102505,483.9299927,0.2767604887,488.9299927,0.3572644889,493.9299927,0.4556399584,498.9299927,0.672817409,504.019989,1.292249441,508.9500122,2.929889917,514.0200195,8.063485146,518.9500122,21.65270424,523.9299927,53.77505112,528.9299927,125.0027008,534.0200195,263.229126,538.9500122,458.0988159,544.0200195,676.6681519,
505.0700073,0.4795945287,460,0.1458354145,470,0.1537376791,475,0.1512058675,480,0.1806090474,485,0.2823209167,490,0.3274356723,495,0.4819853902,500,0.7396170497,505.0700073,1.509777069,509.8500061,3.579987288,515.0700073,9.730514526,519.8499756,25.07817841,525,63.68297195,530,145.0799561,535.0700073,301.0825806,539.8499756,501.9677734,545.0700073,722.2319946,
505.9700012,0.5150083303,461.0599976,0.0978211984,471.0599976,0.09442031384,476.0599976,0.1689563245,481.0599976,0.177183792,486.0599976,0.2897617519,491.0599976,0.3359744847,496.0599976,0.5096340179,501.0400085,0.8386771083,505.9700012,1.722614408,510.8900146,4.190623283,515.9699707,11.286129,520.9000244,29.48330307,526.0599976,76.40898895,531.039978,169.6816711,535.9699707,335.5047913,540.8900146,551.0172119,545.9699707,752.3787231,
507.0100098,0.5918754935,461.9599915,0.1580049247,471.9599915,0.1493929029,476.9599915,0.149652347,481.9599915,0.2225245684,486.9599915,0.2208767533,491.9599915,0.331107229,496.9599915,0.5180599689,501.9400024,0.9275130033,507.0100098,1.974585414,511.9400024,4.950745583,517.0100098,13.90330982,521.960022,34.94795227,526.960022,86.05582428,531.9400024,191.0273285,537.0100098,378.9455261,541.9400024,603.1484375,547.0100098,799.3978882,
508.0499878,0.7097744942,463.0299988,0.1123016551,473.0299988,0.1249628961,478.0299988,0.1755618006,483.0299988,0.1743183881,488.0299988,0.269483,493.0299988,0.4193681777,498.0299988,0.5770469904,502.980011,1.049266815,508.0499878,2.427444696,512.9799805,5.977496624,518.0499878,16.38994789,522.8699951,41.68435669,528.0300293,101.1334305,532.9799805,218.4664612,538.0499878,424.6543274,542.8300171,640.9810791,548.0499878,818.1868896,
508.9500122,0.7709852457,463.9299927,0.106453754,473.9299927,0.12214984,478.9299927,0.1636356413,483.9299927,0.2461173236,488.9299927,0.2435107529,493.9299927,0.4293065965,498.9299927,0.6361135244,504.019989,1.227459073,508.9500122,2.762867689,513.8800049,7.125,518.9500122,18.90942192,523.9299927,49.07302094,528.9299927,118.1606216,534.0200195,249.8084259,538.9500122,463.9609985,543.8800049,690.7255859,548.9500122,844.7435913,
510,0.9793209434,465,0.1232733652,475,0.1885734648,480,0.149045825,485,0.2100439221,490,0.2373788357,495,0.405505985,500,0.7055835724,505.0700073,1.431285024,510,3.241048574,514.9199829,8.442851067,520,22.59642029,524.8400269,56.89773178,530,137.6072388,535.0700073,285.8542786,540,511.096344,544.9199829,734.890625,550,878.3128052,
511.0400085,1.150361896,466.0599976,0.1441243142,476.0599976,0.1005360186,481.0599976,0.1341914237,486.0599976,0.2146464735,491.0599976,0.3223959804,496.0599976,0.4593245685,501.0400085,0.7594228387,505.9700012,1.649503231,511.0400085,3.866637707,515.9699707,10.03785133,521.0599976,26.7993679,525.9000244,67.34102631,531.039978,162.9637299,535.9699707,317.2646179,541.039978,562.5494995,545.9699707,777.111145,551.0200195,883.5878296,
511.9400024,1.315686584,466.9599915,0.1176370606,476.9599915,0.1326138079,481.9599915,0.1681652069,486.9599915,0.2024650127,491.9599915,0.338115871,496.9599915,0.4794371426,501.9400024,0.8692967296,507.0100098,1.953463078,511.9400024,4.597145081,516.8599854,11.67484379,521.960022,31.48193741,526.960022,78.26213074,531.9400024,181.1226501,537.0100098,359.853241,541.9400024,604.3434448,546.8599854,810.9954834,552.0499878,901.7075195,
512.9799805,1.496593237,468.0299988,0.1483749449,478.0299988,0.1654867083,483.0299988,0.1540805697,488.0299988,0.2382056862,493.0299988,0.3356571198,498.0299988,0.5280506015,502.980011,0.9809477329,508.0499878,2.288044691,512.9799805,5.564580441,517.9099731,14.12056637,523.0300293,37.4743576,527.8699951,91.49325562,532.9799805,208.252655,538.0499878,402.7329712,542.9799805,655.5046387,547.9099731,838.9786377,552.9400024,908.4559326,
514.0200195,1.820136189,468.9299927,0.1127298549,478.9299927,0.150329113,483.9299927,0.1965607554,488.9299927,0.2496419549,493.9299927,0.3331787288,498.9299927,0.5657426119,504.019989,1.14599359,508.9500122,2.568197489,514.0200195,6.585875511,518.9500122,16.85957146,523.9299927,43.28045273,528.9299927,108.0695114,534.0200195,236.2555237,538.9500122,438.9015198,544.0200195,694.5355835,548.9500122,866.6318359,553.9699707,909.3536987,
515.0700073,2.174382687,470,0.09942861646,480,0.1408096552,485,0.1984048337,490,0.2323090136,495,0.3539985418,500,0.6183209419,505.0700073,1.337928057,510,3.088432074,515.0700073,7.807715893,519.8499756,19.38446999,525,51.48837662,529.8400269,123.0476761,535.0700073,272.2271729,540,487.1056824,545.0700073,740.0126953,549.8499756,887.0380249,555,906.3675537,
515.9699707,2.508054495,471.0599976,0.1478007883,481.0599976,0.1489386708,486.0599976,0.2052182406,491.0599976,0.2828519642,496.0599976,0.3837673068,501.0400085,0.6902705431,505.9700012,1.489142656,511.0400085,3.760474205,515.9699707,9.256982803,520.9000244,23.23636818,526.0599976,60.57961655,530.8900146,143.3540192,535.9699707,301.2503357,541.039978,534.4229736,545.9699707,780.492981,550.8800049,903.4533081,556.0200195,903.6315918,
517.0100098,2.927607059,471.9599915,0.1286926717,481.9599915,0.102083005,486.9599915,0.1691948771,491.9599915,0.2831239104,496.9599915,0.353215903,501.9400024,0.8011994958,507.0100098,1.775055051,511.9400024,4.31129694,517.0100098,11.21950436,521.960022,27.84412575,526.960022,68.67124939,531.9400024,163.4242401,537.0100098,340.3572388,541.9400024,571.850769,547.0100098,815.0806885,551.9099731,917.4732666,557.0499878,887.9589233,
518.0499878,3.600182533,473.0299988,0.1132646203,483.0299988,0.1797129661,488.0299988,0.1854964942,493.0299988,0.272103548,498.0299988,0.4389873147,502.980011,0.8701351285,508.0499878,2.095302343,512.9799805,5.219386101,518.0499878,13.35754299,522.8699951,32.4684639,528.0300293,81.63248444,532.8300171,183.6325073,538.0499878,381.0323792,542.9799805,618.6491699,548.0499878,850.9927979,552.9400024,923.4276123,557.9400024,877.9674683,
518.9500122,4.141341686,473.9299927,0.1281990707,483.9299927,0.1563257277,488.9299927,0.1769619137,493.9299927,0.2543047965,498.9299927,0.4651223719,504.019989,1.010362029,508.9500122,2.397324562,514.0200195,6.444934845,518.9500122,15.65135479,523.9299927,38.83384705,528.9299927,93.92010498,533.8800049,213.2793884,538.9500122,416.1799316,544.0200195,667.8896484,548.9500122,875.8831177,553.9699707,928.8746948,558.9699707,865.4273682,
520,4.953989029,475,0.1262366325,485,0.1105122194,490,0.1954023093,495,0.315322727,500,0.5398128629,505.0700073,1.146458626,510,2.863594532,515.0700073,7.587848663,520,18.62499809,524.8400269,44.34370422,530,109.8805923,534.9199829,242.3289642,540,459.6558533,545.0700073,704.2868652,550,896.1917725,554.8499756,930.6203613,560,854.6729736,
521.0599976,5.663273811,476.0599976,0.1119061559,486.0599976,0.138460651,491.0599976,0.2051621079,496.0599976,0.3181544244,501.0400085,0.6046152711,505.9700012,1.261680365,511.0400085,3.472948074,515.9699707,8.88715744,521.0599976,22.06380081,525.9000244,52.42156982,531.039978,128.8535461,535.9699707,273.4945374,541.039978,503.0185547,545.9699707,740.6640625,551.0200195,906.6640625,555.8800049,926.854126,561.039978,833.3312378,
521.960022,6.647425175,476.9599915,0.1184070259,486.9599915,0.1753209978,491.9599915,0.2239522934,496.9599915,0.3237956762,501.9400024,0.6686926484,507.0100098,1.528646588,511.9400024,4.009076118,517.0100098,10.73456764,521.960022,25.64190102,526.960022,61.37518311,531.9400024,143.0205536,536.8599854,305.9382324,541.9400024,537.5477295,547.0100098,771.8389893,552.0499878,926.303833,556.9099731,920.4248657,561.9400024,813.085022,
523.0300293,7.936037064,478.0299988,0.1074200422,488.0299988,0.1485828906,493.0299988,0.1820975244,498.0299988,0.350833863,502.980011,0.6682722569,508.0499878,1.791542053,512.9799805,4.85962677,518.0499878,12.85591507,523.0300293,30.52925682,527.8699951,71.41838074,532.9799805,164.0048981,537.9099731,337.9573975,542.9799805,589.3292236,548.0499878,807.0685425,552.9400024,934.2460938,557.9400024,896.3301392,562.9799805,803.3010254,
523.9299927,9.279636383,478.9299927,0.0555582568,488.9299927,0.1614558101,493.9299927,0.2460543513,498.9299927,0.3670912087,504.019989,0.8188194633,508.9500122,2.064221621,514.0200195,5.857484341,518.9500122,14.90330124,523.9299927,35.31653976,528.9299927,83.98897552,534.0200195,189.8463593,538.9500122,376.5174255,544.0200195,626.1228638,548.9500122,830.4625244,553.9699707,937.3009644,558.9699707,881.3299561,564.0200195,766.2452393,
525,10.96378136,480,0.1218835115,490,0.2270663083,495,0.2345683277,500,0.3989812732,505.0700073,0.9177972674,510,2.418178558,515.0700073,6.977532387,520,17.79379463,525,42.12883377,529.8400269,95.83532715,535.0700073,215.7146454,539.8499756,413.4595032,545.0700073,665.7712402,550,854.572876,555,929.2226563,559.8499756,867.6066895,565.0700073,741.5663452,
526.0599976,12.84508038,481.0599976,0.1029576287,491.0599976,0.1910821497,496.0599976,0.2547770441,501.0400085,0.4905250967,505.9700012,1.050284028,511.0400085,2.930948257,515.9699707,8.25703907,521.0599976,21.18600655,526.0599976,49.83329773,530.8900146,112.8112946,535.9699707,239.6263733,540.8900146,451.9917297,545.9699707,700.9569092,551.0200195,875.1785889,556.0200195,925.7161865,560.8900146,857.6179199,565.9699707,714.9526978,
526.960022,14.63916779,481.9599915,0.1545626074,491.9599915,0.2220201641,496.9599915,0.2826523483,501.9400024,0.5092297792,507.0100098,1.199842691,511.9400024,3.372134209,517.0100098,9.882428169,521.960022,24.64366531,526.960022,56.4928093,531.9400024,128.0352631,537.0100098,270.4237671,541.9400024,493.4354248,547.0100098,728.4863892,552.0499878,895.4290161,557.0499878,916.6980591,561.9400024,830.4689941,567.0100098,690.0758057,
528.0300293,17.1037159,483.0299988,0.1258228123,493.0299988,0.1829338372,498.0299988,0.3072160184,502.980011,0.596159935,508.0499878,1.437495828,512.9799805,4.097532272,518.0499878,11.89428997,523.0300293,29.65411758,528.0300293,67.03877258,532.9799805,145.6131134,538.0499878,304.7494507,542.8300171,525.2836914,548.0499878,766.2832642,552.9400024,894.0203857,557.9400024,907.5809326,562.8300171,809.8300781,568.0499878,662.5708618,
528.9299927,19.65143967,483.9299927,0.125443995,493.9299927,0.2397824526,498.9299927,0.3150541484,504.019989,0.6546374559,508.9500122,1.656495094,514.0200195,4.896535397,518.9500122,13.67510414,523.9299927,34.21357727,528.9299927,77.50588989,533.8800049,165.3157196,538.9500122,329.8555298,543.8800049,560.9578247,548.9500122,781.9199829,553.9699707,898.0953979,558.9699707,891.6364136,563.8800049,779.2930908,568.9500122,643.9526978,
530,22.96591568,485,0.1140136123,495,0.2619076371,500,0.3081591129,505.0700073,0.8128039837,510,2.041446686,515.0700073,5.876674652,520,16.43541908,525,40.27719879,530,90.77744293,534.9199829,187.8332367,540,364.6366577,544.9199829,596.5918579,550,795.0811157,555,895.2700195,560,861.3241577,564.9199829,759.583313,570,622.8464966,
531.039978,26.79302406,486.0599976,0.1165591776,496.0599976,0.2369485199,501.0400085,0.420838505,505.9700012,0.8569200635,511.0400085,2.326125622,515.9699707,6.772311687,521.0599976,19.52722168,526.0599976,47.73783112,531.039978,105.1954346,535.9699707,211.5384674,541.039978,403.0078735,545.9699707,631.5759888,551.0200195,820.8937378,556.0200195,875.9331055,561.039978,845.6300659,565.9699707,732.3850708,571.0200195,591.5633545,
531.9400024,29.86321068,486.9599915,0.1074864268,496.9599915,0.2258495092,501.9400024,0.441057831,507.0100098,1.007326007,511.9400024,2.686580658,517.0100098,8.26666069,521.960022,22.69271851,526.960022,54.49879074,531.9400024,116.9745483,536.8599854,237.6514435,541.9400024,429.9933167,546.8599854,658.3216553,552.0499878,827.1490479,557.0499878,871.4467773,561.9400024,818.5997314,566.8599854,711.4091187,572.0499878,568.263855,
532.9799805,34.17689896,488.0299988,0.1653373539,498.0299988,0.2540347278,502.980011,0.482717514,508.0499878,1.135176301,512.9799805,3.362763166,518.0499878,9.778978348,523.0300293,27.11013985,528.0300293,64.54759979,532.9799805,135.607254,537.9099731,263.188324,542.9799805,465.5073547,547.9099731,684.1052246,552.9400024,832.4795532,557.9400024,861.4450684,562.9799805,810.3137817,567.9099731,684.7983398,572.9400024,546.9086304,
534.0200195,39.5474472,488.9299927,0.1416086704,498.9299927,0.2792062163,504.019989,0.5580489635,508.9500122,1.326160789,514.0200195,3.935240269,518.9500122,11.43608665,523.9299927,31.20331764,528.9299927,74.72997284,534.0200195,154.8697662,538.9500122,289.2543945,544.0200195,496.8919678,548.9500122,701.3956299,553.9699707,843.0162964,558.9699707,841.2312622,564.0200195,774.0473022,568.9500122,662.9915771,573.9699707,525.8493042,
535.0700073,45.17934799,490,0.180737406,500,0.2871852815,505.0700073,0.6441991925,510,1.573407412,515.0700073,4.67026329,520,13.5761795,525,37.23810959,530,87.07463074,535.0700073,178.0183258,539.8499756,321.1990662,545.0700073,527.5154419,549.8499756,724.8599854,555,827.2149658,560,828.2307129,565.0700073,755.6049194,569.8499756,638.0631714,575,505.1705322,
535.9699707,50.09176636,491.0599976,0.1823961586,501.0400085,0.2973937392,505.9700012,0.6975148916,511.0400085,1.881844282,515.9699707,5.425340176,521.0599976,16.21890068,526.0599976,44.05685425,531.039978,101.4107895,535.9699707,196.3488159,540.8900146,353.1583862,545.9699707,552.2893677,550.8800049,734.7816772,556.0200195,816.9619141,561.039978,809.8552856,565.9699707,741.4266968,570.8800049,617.5935059,576.0200195,481.9294434,
537.0100098,55.88178253,491.9599915,0.1412790418,501.9400024,0.3796719313,507.0100098,0.7822220325,511.9400024,2.180689335,517.0100098,6.59155798,521.960022,18.57798195,526.960022,49.50495148,531.9400024,113.3568039,537.0100098,223.5707855,541.9400024,382.7809753,547.0100098,578.8696289,551.9099731,744.7615967,557.0499878,817.7120361,561.9400024,783.5838013,567.0100098,711.3305054,571.9099731,595.2601929,577.0499878,465.211792,
538.0499878,63.03924179,493.0299988,0.1612556428,502.980011,0.3988086283,508.0499878,0.97665447,512.9799805,2.634776592,518.0499878,7.846008778,523.0300293,22.50362206,528.0300293,59.10143661,532.9799805,129.5113678,538.0499878,248.5466614,542.9799805,413.497406,548.0499878,598.7835083,552.9400024,753.2614746,557.9400024,810.9860229,562.9799805,768.4764404,568.0499878,682.0412598,572.9400024,568.9076538,577.9400024,450.8984985,
538.9500122,68.85657501,493.9299927,0.1301786751,504.019989,0.4751437306,508.9500122,1.079447389,514.0200195,3.155126095,518.9500122,9.010186195,523.9299927,25.98233032,528.9299927,68.58900452,534.0200195,150.3672485,538.9500122,272.0617371,543.8800049,439.0492249,548.9500122,616.5784302,553.9699707,753.9019165,558.9699707,797.9495239,564.0200195,747.631958,568.9500122,658.5143433,573.9699707,542.3745728,578.9699707,431.7795105,
540,76.04718018,495,0.127678737,505.0700073,0.5628318191,510,1.326459646,515.0700073,3.767581463,520,10.78034782,525,30.96285629,530,79.5340271,535.0700073,170.9975891,540,300.3713989,544.9199829,464.5014954,550,642.2005615,554.8499756,756.3189087,560,791.0524902,565.0700073,720.9849243,570,637.6869507,574.8499756,528.9304199,580,413.2641296,
541.039978,83.51570892,496.0599976,0.2089202106,505.9700012,0.6003232598,511.0400085,1.542847753,515.9699707,4.329861641,521.0599976,12.67130756,526.0599976,36.60422134,531.039978,92.78321075,535.9699707,188.98909,541.039978,329.9112244,545.9699707,491.1395874,551.0200195,646.4741211,555.8800049,752.7324219,561.039978,763.2214355,565.9699707,692.5476074,571.0200195,607.1643066,575.8800049,502.6254578,581.039978,397.1242981,
541.9400024,89.74384308,496.9599915,0.1695121974,507.0100098,0.7250183821,511.9400024,1.733977914,517.0100098,5.214913845,521.960022,14.65517235,526.960022,41.34481049,531.9400024,103.845993,537.0100098,214.1254578,541.9400024,355.1214905,546.8599854,513.8414307,552.0499878,659.322937,556.9099731,735.555481,561.9400024,739.0667725,567.0100098,669.0931396,572.0499878,588.7993164,576.9099731,483.138092,581.9400024,382.8564148,
542.9799805,96.45032501,498.0299988,0.1795927435,508.0499878,0.831638217,512.9799805,2.153537273,518.0499878,6.236126423,523.0300293,17.58692169,528.0300293,48.82831573,532.9799805,119.6916885,538.0499878,240.5740509,542.9799805,380.8335266,547.9099731,533.8022461,552.9400024,667.7329712,557.9400024,726.8384399,562.9799805,726.7666016,568.0499878,633.5447388,572.9400024,561.0534058,577.9400024,462.8483582,582.9799805,365.2992554,
544.0200195,103.2952652,498.9299927,0.1796783805,508.9500122,0.8981267214,514.0200195,2.560690641,518.9500122,7.192929268,523.9299927,20.40151787,528.9299927,56.59735107,534.0200195,137.0453949,538.9500122,260.630188,544.0200195,410.3899536,548.9500122,555.1195679,553.9699707,669.2589722,558.9699707,723.7600708,564.0200195,702.0931396,568.9500122,621.1657715,573.9699707,539.1858521,578.9699707,445.4033813,584.0200195,356.4919434,
545.0700073,110.4645996,500,0.2281244993,510,1.130585194,515.0700073,3.0522995,520,8.564845085,525,24.23241425,530,65.90265656,535.0700073,156.3253174,540,289.650238,545.0700073,430.1392822,549.8499756,564.0681763,555,669.5039673,559.8499756,712.9874268,565.0700073,680.784729,570,599.0452271,575,518.7627563,579.8499756,431.4208984,585.0700073,342.3052063,
545.9699707,115.1845474,501.0400085,0.2274658382,511.0400085,1.376317024,515.9699707,3.518221855,521.0599976,10.13196945,526.0599976,28.70434189,531.039978,76.57431793,535.9699707,173.3835754,541.039978,318.2440491,545.9699707,454.5884094,550.8800049,572.8491821,556.0200195,661.361084,560.8900146,693.114502,565.9699707,657.3276367,571.0200195,579.1367798,576.0200195,495.3796997,580.8900146,412.4057922,585.9699707,331.7757263,
547.0100098,120.6079483,501.9400024,0.281090647,511.9400024,1.565903783,517.0100098,4.265887737,521.960022,11.50537586,526.960022,32.76188278,531.9400024,86.03440857,537.0100098,195.7461395,541.9400024,338.843689,547.0100098,476.5332947,551.9099731,587.0250244,557.0499878,661.0906372,561.9400024,680.4454956,567.0100098,630.0355225,572.0499878,555.3466797,577.0499878,474.3986816,581.9400024,403.4814453,587.0100098,321.6245117,
548.0499878,125.4245453,502.980011,0.339740485,512.9799805,1.81961453,518.0499878,4.95354557,523.0300293,13.89048481,528.0300293,38.18309021,532.9799805,98.81921387,538.0499878,219.127655,542.9799805,368.3026428,548.0499878,499.7110596,552.9400024,590.2298584,557.9400024,650.4439697,562.8300171,661.9268799,568.0499878,601.8649902,572.9400024,530.9140625,577.9400024,456.5668335,582.8300171,384.667572,588.0499878,310.7583618,
548.9500122,128.056839,504.019989,0.361880213,514.0200195,2.20364356,518.9500122,5.869077206,523.9299927,16.09144974,528.9299927,44.18130493,534.0200195,112.41185,538.9500122,238.7855682,544.0200195,393.0922852,548.9500122,506.0062866,553.9699707,587.1401978,558.9699707,632.3336792,563.8800049,640.7585449,568.9500122,582.2130127,573.9699707,513.027832,578.9699707,439.4283752,583.8800049,370.5532532,588.9500122,303.4064636,
550,132.8406677,505.0700073,0.4024007618,515.0700073,2.540987015,520,6.936911106,525,19.31025696,530,51.97481918,535.0700073,128.6928558,540,264.7674866,545.0700073,414.9956665,550,515.8920898,554.8499756,589.7650757,560,620.2340088,564.9199829,622.7124634,570,561.449585,575,486.4945679,580,414.6519775,584.9199829,354.6855774,590,293.3519287,
551.0200195,135.8843079,505.9700012,0.4390417933,515.9699707,2.968368292,521.0599976,8.181075096,526.0599976,22.45335007,531.039978,60.60547256,535.9699707,143.0683136,541.039978,290.9677429,545.9699707,433.6192017,551.0200195,531.875061,555.8800049,582.8742676,561.039978,605.5467529,565.9699707,597.8175049,571.0200195,537.8131104,576.0200195,470.036377,581.039978,402.5307312,585.9699707,343.4783936,591.0200195,283.6229248,
552.0499878,136.7648468,507.0100098,0.536687851,517.0100098,3.613583326,521.960022,9.466835976,526.960022,25.71852303,531.9400024,67.22546387,537.0100098,161.4742584,541.9400024,311.9929504,547.0100098,455.4777832,552.0499878,540.8417969,556.9099731,580.0283203,561.9400024,591.1190186,566.8599854,582.0693359,572.0499878,522.4910278,577.0499878,454.6563721,581.9400024,388.6352234,586.8599854,332.7096252,592.0499878,273.6052551,
552.9400024,137.72435,508.0499878,0.5679935813,518.0499878,4.256188869,523.0300293,11.31263256,528.0300293,30.40598106,532.9799805,77.12899017,538.0499878,180.2809143,542.9799805,337.5636902,548.0499878,475.8300476,552.9400024,545.772583,557.9400024,575.7989502,562.9799805,575.9484863,567.9099731,564.4692993,572.9400024,499.980072,577.9400024,439.3540649,582.9799805,374.1182556,587.9099731,323.0625916,592.9400024,267.73349,
553.9699707,137.5106201,508.9500122,0.6783493161,518.9500122,5.022126675,523.9299927,13.23575497,528.9299927,34.68230438,534.0200195,86.98391724,538.9500122,195.9995117,544.0200195,360.1300659,548.9500122,488.6274719,553.9699707,547.1835938,558.9699707,564.4408569,564.0200195,554.4205933,568.9500122,542.0544434,573.9699707,479.8457336,578.9699707,421.9777527,584.0200195,366.183136,588.9500122,312.9055176,593.9699707,257.558197,
555,138.2211151,510,0.8344105482,520,5.818425655,525,15.45493221,530,40.59558105,535.0700073,100.8437195,540,217.6255646,545.0700073,382.4242859,550,501.743866,555,542.9260254,559.8499756,552.1034546,565.0700073,539.8297729,569.8499756,519.5194092,575,456.4378662,580,405.4418335,585.0700073,350.5594482,589.8499756,301.8891602,595,249.8924255,
556.0200195,136.5901642,511.0400085,0.9368482232,521.0599976,6.986470222,526.0599976,18.35668945,531.039978,47.74013901,535.9699707,111.5155258,541.039978,235.5080719,545.9699707,398.5119629,551.0200195,510.9110413,556.0200195,537.0352783,560.8900146,541.4067993,565.9699707,521.8198853,570.8800049,502.1415405,576.0200195,440.2080078,581.039978,386.5999451,585.9699707,340.3400879,590.8800049,291.3730469,596.0200195,245.2117157,
557.0499878,134.362915,511.9400024,1.136393547,521.960022,8.061760902,526.960022,20.81999397,531.9400024,52.91156006,537.0100098,126.4638901,541.9400024,256.6090698,547.0100098,418.549469,552.0499878,514.5472412,557.0499878,532.3601685,561.9400024,525.0801392,567.0100098,507.8623962,571.9099731,476.2218323,577.0499878,422.6584473,581.9400024,373.4562683,587.0100098,328.7991638,591.9099731,282.2786255,597.0499878,236.7030945,
557.9400024,132.956192,512.9799805,1.195453167,523.0300293,9.593834877,528.0300293,24.553545,532.9799805,61.0052681,538.0499878,139.2285461,542.9799805,275.7556458,548.0499878,435.0089722,552.9400024,520.4503784,557.9400024,529.0093384,562.9799805,510.4087524,568.0499878,483.5294189,572.9400024,455.4527283,577.9400024,410.7542114,582.9799805,359.6246643,588.0499878,322.6477051,592.9400024,272.2794495,597.9400024,228.1484833,
558.9699707,129.954361,514.0200195,1.550955176,523.9299927,11.14148903,528.9299927,28.47120094,534.0200195,69.66113281,538.9500122,153.6446686,544.0200195,296.2363586,548.9500122,446.649353,553.9699707,520.3270874,558.9699707,520.824707,563.8800049,500.6697083,568.9500122,464.1844482,573.9699707,443.0476074,578.9699707,391.8508606,584.0200195,348.4895325,588.9500122,313.2319946,593.9699707,267.4094238,598.9699707,220.1132965,
560,126.6364746,515.0700073,1.834501266,525,13.08973885,530,33.20243073,535.0700073,79.67922974,540,169.8776855,545.0700073,315.07724,550,460.1974182,555,514.2510986,560,505.5890198,564.9199829,480.663147,570,456.5961304,574.8499756,422.6947632,580,373.6985779,585.0700073,335.7748718,590,301.890625,594.8499756,257.7188416,600,213.1151733,
561.039978,124.2420349,515.9699707,2.036468744,526.0599976,15.54694653,531.039978,38.30980682,535.9699707,88.66110229,541.039978,187.7765198,545.9699707,327.5699158,551.0200195,468.7213135,556.0200195,515.9329224,561.039978,495.629364,565.9699707,463.5467529,571.0200195,431.8352661,575.8800049,400.9794006,581.039978,362.5887451,585.9699707,324.9185791,591.0200195,291.5009155,595.8800049,252.6612854,601.0100098,207.7735138,
561.9400024,120.6557999,517.0100098,2.497705698,526.960022,17.54261017,531.9400024,42.95042801,537.0100098,99.97312164,541.9400024,198.6754913,547.0100098,343.4873352,552.0499878,473.0458679,557.0499878,507.5728149,561.9400024,481.6447449,566.8599854,450.5559082,572.0499878,415.1761169,576.9099731,386.132782,581.9400024,347.295929,587.0100098,315.0132446,592.0499878,282.5593872,596.9099731,244.398819,602.0200195,199.6487122,
562.9799805,116.7575912,518.0499878,2.892598152,528.0300293,20.93340683,532.9799805,49.3984642,538.0499878,111.4815826,542.9799805,217.5129852,548.0499878,355.9512024,552.9400024,476.9279785,557.9400024,504.6813354,562.9799805,476.0836487,567.9099731,434.0079041,572.9400024,401.724823,577.9400024,372.4848938,582.9799805,335.7963562,588.0499878,307.0014038,592.9400024,275.6599731,597.9400024,234.7039642,603.039978,192.7336578,
564.0200195,113.6041107,518.9500122,3.470715761,528.9299927,23.91441154,534.0200195,56.56896591,538.9500122,121.5856628,544.0200195,231.515274,548.9500122,367.1498413,553.9699707,474.9019165,558.9699707,497.2935181,564.0200195,457.893158,568.9500122,417.7389832,573.9699707,384.1384888,578.9699707,362.6666565,584.0200195,322.3937988,588.9500122,298.2906799,593.9699707,266.4143372,598.9699707,224.7447968,604.0499878,187.1659698,
565.0700073,109.9293365,520,4.012590408,530,27.712677,535.0700073,63.70122147,540,134.5433807,545.0700073,245.5174103,550,376.8197021,555,476.6316833,560,484.6761169,565.0700073,444.163269,569.8499756,402.0422363,575,369.8749084,579.8499756,349.66745,585.0700073,310.8071899,590,287.412384,595,259.0860901,599.8499756,219.2883148,605.0700073,178.8455963,
565.9699707,106.6386642,521.0599976,4.768217564,531.039978,32.46031189,535.9699707,70.8828125,541.039978,147.8884125,545.9699707,257.0093384,551.0200195,383.7200012,556.0200195,469.0218201,561.039978,471.4749756,565.9699707,427.1881409,570.8800049,385.2397156,576.0200195,352.4691467,580.8900146,332.1244507,585.9699707,301.6916809,591.0200195,278.5707703,596.0200195,252.4333344,600.8599854,211.4052734,605.9400024,173.0141907,
567.0100098,102.259697,521.960022,5.584256172,531.9400024,36.26051331,537.0100098,81.06056976,541.9400024,158.5196228,547.0100098,270.5286865,552.0499878,389.752533,557.0499878,455.243042,561.9400024,462.637207,567.0100098,409.9341736,571.9099731,371.4008789,577.0499878,341.8450928,581.9400024,321.7156982,587.0100098,291.2216797,592.0499878,266.1605835,597.0499878,240.7035065,601.8800049,204.8243103,606.9500122,166.6204987,
568.0499878,98.93383026,523.0300293,6.617567062,532.9799805,41.72610474,538.0499878,89.9088974,542.9799805,171.5113525,548.0499878,278.8374329,552.9400024,391.4871826,557.9400024,455.8027344,562.9799805,443.6064148,568.0499878,396.2777405,572.9400024,351.5725403,577.9400024,328.0684204,582.8300171,310.9720154,588.0499878,284.1861267,592.9400024,260.8155823,597.9400024,235.2686615,602.8900146,198.6789398,607.9699707,159.5065155,
568.9500122,95.82569885,523.9299927,7.664836884,534.0200195,46.80346298,538.9500122,98.49832153,544.0200195,182.648468,548.9500122,285.7377014,553.9699707,393.9894104,558.9699707,451.7607117,564.0200195,434.6992493,568.9500122,381.3200684,573.9699707,339.5649719,578.9699707,313.1691895,583.8800049,298.4257813,588.9500122,272.7012634,593.9699707,251.8644867,598.9699707,227.9414215,603.9099731,191.5384827,608.9799805,153.9181824,
570,91.69805908,525,8.938510895,535.0700073,54.34266663,540,108.6016846,545.0700073,193.3242035,550,294.6118469,555,385.7793579,560,438.5068359,565.0700073,419.5545349,570,369.4242554,574.8499756,327.6052246,580,301.1689453,584.9199829,288.3059082,590,267.7218018,595,240.6527557,600,220.8182526,604.9199829,183.6590576,610,147.9848328,
571.0200195,87.63674927,526.0599976,10.56317043,535.9699707,60.18981934,541.039978,120.2142105,545.9699707,201.0663452,551.0200195,300.1853027,556.0200195,386.0376892,561.039978,428.1621094,565.9699707,403.4753418,571.0200195,353.4886475,575.8800049,313.2140503,581.039978,288.6676636,585.9699707,276.0596924,591.0200195,259.6994324,596.0200195,237.3883667,601.0100098,214.1724091,605.9400024,174.9658661,611.0200195,141.5110321,
572.0499878,85.15520477,526.960022,11.95528412,537.0100098,68.29323578,541.9400024,128.1391754,547.0100098,213.3816223,552.0499878,301.8573608,557.0499878,381.0302734,561.9400024,420.650238,567.0100098,388.9891052,572.0499878,337.1642761,576.9099731,301.2083435,581.9400024,279.5845337,586.8599854,267.3207092,592.0499878,249.345993,597.0499878,230.5947266,602.0200195,204.3408813,606.9500122,170.298645,612.0499878,135.7326355,
572.9400024,81.7908783,528.0300293,14.02830219,538.0499878,76.16017914,542.9799805,138.1515808,548.0499878,220.0926666,552.9400024,305.5621338,557.9400024,376.4525146,562.9799805,407.6831055,568.0499878,374.6598206,572.9400024,324.3816223,577.9400024,287.8720398,582.9799805,270.260437,587.9099731,260.594696,592.9400024,243.2690582,597.9400024,222.6566315,603.039978,199.0927582,607.9699707,164.1197815,612.9400024,128.800293,
573.9699707,78.61354065,528.9299927,16.24163055,538.9500122,83.51610565,544.0200195,147.990097,548.9500122,227.6087341,553.9699707,305.1264648,558.9699707,372.4867859,564.0200195,391.622345,568.9500122,366.6304626,573.9699707,314.0686951,578.9699707,276.4804688,584.0200195,260.4268188,588.9500122,252.3029175,593.9699707,234.5319061,598.9699707,214.7751312,604.0499878,189.7693329,608.8400269,158.407135,613.9699707,125.1826706,
575,75.39428711,530,18.97079086,540,92.27261353,545.0700073,156.3264923,550,232.1129608,555,304.6107483,560,358.3162842,565.0700073,377.9662476,570,351.0975952,575,299.7227478,579.8499756,265.5671997,585.0700073,251.0930023,589.8499756,243.4517365,595,229.4381866,600,207.4012756,605.0700073,184.4704285,609.8499756,151.1610565,615,120.301651,
576.0200195,71.56652832,531.039978,21.9786129,541.039978,99.46912384,545.9699707,163.1998749,551.0200195,235.2960358,556.0200195,301.7838745,561.039978,352.7601624,565.9699707,371.0882263,571.0200195,333.0079041,576.0200195,288.0635986,580.8900146,259.2287598,585.9699707,240.1775055,590.8800049,236.1534729,596.0200195,222.5345306,601.0100098,201.1569366,605.9400024,176.8418884,610.8800049,144.9094849,616.0200195,113.5566406,
577.0499878,69.08575439,531.9400024,24.58041,541.9400024,108.7050781,547.0100098,172.7404175,552.0499878,240.3625946,557.0499878,298.8381958,561.9400024,346.0908813,567.0100098,356.3905334,572.0499878,322.0769348,577.0499878,277.400177,581.9400024,246.6390381,587.0100098,236.0803528,591.9099731,226.7243958,597.0499878,215.7902069,602.0200195,195.3312836,606.9500122,169.865036,611.9099731,139.6686554,617.0499878,110.3679733,
577.9400024,66.51308441,532.9799805,28.06524658,542.9799805,117.3739395,548.0499878,179.9233398,552.9400024,241.3711395,557.9400024,294.7817688,562.9799805,337.5123901,568.0499878,340.6283875,572.9400024,311.9668884,577.9400024,266.9349365,582.9799805,237.2803345,588.0499878,226.341156,592.9400024,219.4385834,597.9400024,209.5545502,603.039978,188.2086029,607.9699707,163.092804,612.9400024,134.1788177,617.9400024,105.9420547,
578.9699707,63.36553574,534.0200195,32.3408432,544.0200195,124.8674088,548.9500122,182.6235352,553.9699707,242.0496521,558.9699707,289.9841003,564.0200195,325.4797974,568.9500122,335.0578308,573.9699707,298.9124756,578.9699707,258.9580688,583.8800049,231.6492767,588.9500122,220.729126,593.9699707,214.4311523,598.9699707,201.9018555,604.0499878,181.0675964,608.9799805,157.2212067,613.9699707,127.8305359,618.9699707,100.8946457,
580,60.38780975,535.0700073,36.9564476,545.0700073,132.4521942,550,187.8206329,555,242.5554352,560,281.5786438,565.0700073,313.9329834,570,322.6290283,575,286.4214172,580,248.5627747,584.9199829,222.6660919,590,213.6402588,594.8499756,206.609375,600,196.8358154,605.0700073,174.1595917,610,151.1968842,614.8499756,123.375206,620,97.72116089,
581.039978,59.16804123,535.9699707,41.1487999,545.9699707,138.9313507,551.0200195,191.6060638,556.0200195,241.4100952,561.039978,276.2415771,565.9699707,302.6910095,571.0200195,304.6768494,576.0200195,275.3499451,581.039978,238.479126,585.9699707,215.5681305,591.0200195,206.6426239,595.8800049,199.884491,601.0100098,190.4145355,605.9400024,167.551178,611.0200195,144.6953735,615.8800049,118.6272507,621.0200195,92.61194611,
581.9400024,56.99708939,537.0100098,46.39161682,547.0100098,145.4470978,552.0499878,195.3880768,557.0499878,238.0205078,561.9400024,270.118042,567.0100098,290.5844727,572.0499878,293.3047791,577.0499878,264.889679,581.9400024,231.1659088,586.8599854,209.8516693,592.0499878,198.5918121,596.9099731,192.769165,602.0200195,183.6893158,606.9500122,161.6871796,612.0499878,137.6891174,616.9099731,113.9904556,622.0499878,88.40503693,
582.9799805,54.78583527,538.0499878,51.67668533,548.0499878,151.3112793,552.9400024,194.7225494,557.9400024,234.588913,562.9799805,262.1611328,568.0499878,280.1103821,572.9400024,285.4376221,577.9400024,253.1474762,582.9799805,221.2945251,587.9099731,201.6303711,592.9400024,192.1785583,597.9400024,186.6837463,603.039978,176.556778,607.9699707,154.9656067,612.9400024,134.2088318,617.9400024,109.2228622,622.9400024,86.00498962,
584.0200195,53.19029236,538.9500122,56.39608383,548.9500122,153.1780396,553.9699707,196.9571686,558.9699707,231.6032562,564.0200195,252.7611237,568.9500122,272.8625183,573.9699707,272.5748291,578.9699707,244.1811981,584.0200195,212.9829102,588.9500122,196.6785736,593.9699707,186.5992889,598.9699707,180.4344635,604.0499878,171.278595,608.9799805,149.2361755,613.9699707,128.4755554,618.9699707,103.6744766,623.9699707,81.94517517,
585.0700073,51.06996918,540,62.50957489,550,159.4427032,555,195.2055359,560,223.394165,565.0700073,244.5189972,570,260.3850403,575,259.8883667,580,233.0948944,585.0700073,210.0706024,589.8499756,188.6390686,595,180.8864441,599.8499756,174.7852783,605.0700073,163.6749115,610,143.6017609,615,121.6892395,619.8499756,99.1208725,625,77.5848999,
585.9699707,49.52197266,541.039978,68.30515289,551.0200195,161.8266754,556.0200195,194.5066833,561.039978,219.5537415,565.9699707,237.8872528,571.0200195,250.1946716,576.0200195,251.5859833,581.039978,225.490387,585.9699707,200.755127,590.8800049,181.8148956,596.0200195,176.0447083,600.8599854,170.2191162,605.9400024,158.6598663,611.0200195,137.2239227,616.0200195,117.3542175,620.8800049,94.49578094,626.0200195,73.86356354,
587.0100098,47.70643234,541.9400024,73.21709442,552.0499878,164.5356445,557.0499878,191.1156616,561.9400024,214.2594757,567.0100098,228.9155884,572.0499878,242.415802,577.0499878,240.2646332,581.9400024,220.3938904,587.0100098,193.4749908,591.9099731,175.9989624,597.0499878,169.6787262,601.8800049,164.699173,606.9500122,152.954895,612.0499878,131.5797424,617.0499878,112.7610931,621.9099731,89.99858093,627.0499878,70.54679108,
588.0499878,46.19087982,542.9799805,79.71513367,552.9400024,165.2246552,557.9400024,188.2756042,562.9799805,208.0881195,568.0499878,219.2238617,572.9400024,231.7618256,577.9400024,232.0911865,582.9799805,210.914917,588.0499878,188.6094971,592.9400024,172.2286835,597.9400024,165.4218292,602.8900146,158.2564697,607.9699707,147.5272675,612.9400024,128.480072,617.9400024,108.7608414,622.9400024,87.23958588,627.9400024,67.03297424,
588.9500122,45.18742371,544.0200195,85.1497345,553.9699707,166.0922699,558.9699707,183.6382599,564.0200195,201.1005707,568.9500122,212.0525665,573.9699707,221.6000366,578.9699707,221.6392212,584.0200195,203.7301636,588.9500122,182.5721283,593.9699707,166.6618958,598.9699707,159.6559296,603.9099731,153.5032196,608.9799805,140.0253448,613.9699707,120.7117996,618.9699707,101.9551239,623.9699707,83.45792389,628.9699707,64.66545868,
590,43.53054047,545.0700073,90.23284149,555,165.5948792,560,181.6461487,565.0700073,194.9002838,570,204.6190033,575,212.3181152,580,211.9695892,585.0700073,194.7841034,590,175.466095,594.8499756,163.9593658,600,154.7621918,604.9199829,147.0250702,610,134.0040131,615,116.1877747,620,99.00295258,624.8499756,79.63195038,630,61.77661514,
591.0200195,42.26262665,545.9699707,94.64796448,556.0200195,164.7908173,561.039978,176.5283661,565.9699707,189.0905914,571.0200195,199.0352936,576.0200195,202.3061523,581.039978,204.697937,585.9699707,189.7554321,591.0200195,171.2396698,595.8800049,157.9090118,601.0100098,149.1113892,605.9400024,141.4160156,611.0200195,129.6628723,616.0200195,110.8791275,621.0200195,95.07942963,625.8800049,76.61366272,631.0100098,57.82065582,
592.0499878,41.45694351,547.0100098,98.53434753,557.0499878,162.068222,561.9400024,173.3106842,567.0100098,181.2287903,572.0499878,189.031601,577.0499878,196.1493835,581.9400024,198.9904633,587.0100098,183.723587,592.0499878,166.250824,596.9099731,151.4740295,602.0200195,143.3827667,606.9500122,136.9213409,612.0499878,124.0042496,617.0499878,106.4717407,622.0499878,90.05288696,626.9099731,72.41886139,632.0200195,56.00865173,
592.9400024,40.7494278,548.0499878,102.8740692,557.9400024,161.1413574,562.9799805,167.9215698,568.0499878,175.1274414,572.9400024,182.9262695,577.9400024,190.2099304,582.9799805,192.8690491,588.0499878,177.1160889,592.9400024,161.9495544,597.9400024,146.2211456,603.039978,139.0170135,607.9699707,129.8925781,612.9400024,119.3946381,617.9400024,102.4367294,622.9400024,86.21388245,627.9400024,70.05918121,633.039978,53.20069122,
593.9699707,38.49704742,548.9500122,105.7292175,558.9699707,156.3904724,564.0200195,162.3635712,568.9500122,167.8392181,573.9699707,173.6719971,578.9699707,181.6069031,584.0200195,184.2458038,588.9500122,174.2308807,593.9699707,155.2533417,598.9699707,143.5582123,604.0499878,133.3604126,608.8400269,127.3658447,613.9699707,115.9939423,618.9699707,98.76638031,623.9699707,83.15036011,628.9699707,66.08287048,634.0499878,50.08984375,
595,37.03679276,550,108.1475754,560,152.5537109,565.0700073,156.8153534,570,162.2635803,575,166.5734558,580,174.1744385,585.0700073,177.7124481,590,166.8211517,595,150.4162598,599.8499756,136.5508881,605.0700073,129.4136963,609.8499756,121.5992966,615,110.6334305,620,93.49681091,625,78.80482483,629.8499756,64.17282104,635.0700073,48.41868973,
596.0200195,36.22966385,551.0200195,110.5004654,561.039978,150.6860657,565.9699707,151.2028656,571.0200195,155.6892853,576.0200195,159.6452789,581.039978,168.1012726,585.9699707,174.319046,591.0200195,161.6039429,596.0200195,147.322052,600.8599854,133.7299957,605.9400024,123.1820374,610.8800049,116.67173,616.0200195,105.3160858,621.0200195,89.55844116,626.0200195,74.65605164,630.8599854,60.61313248,635.9400024,46.62063217,
597.0499878,34.72195053,552.0499878,110.9081268,561.9400024,147.2801971,567.0100098,146.0796967,572.0499878,149.0093842,577.0499878,154.0188751,581.9400024,164.428299,587.0100098,168.2784271,592.0499878,157.0467072,597.0499878,141.2400513,601.8800049,128.8242645,606.9500122,119.9697952,611.9099731,112.9856033,617.0499878,100.7471237,622.0499878,85.01832581,627.0499878,70.56005096,631.8800049,57.66571808,636.9500122,44.63908768,
597.9400024,34.17411423,552.9400024,112.9844971,562.9799805,141.0056458,568.0499878,141.2218323,572.9400024,144.0786591,577.9400024,148.5019379,582.9799805,155.8505859,588.0499878,162.3596649,592.9400024,151.8284302,597.9400024,139.0375977,602.8900146,125.2324753,607.9699707,115.1266861,612.9400024,107.4520493,617.9400024,97.49390411,622.9400024,81.95606995,627.9400024,68.75134277,632.8900146,54.8940239,637.9699707,43.08056259,
598.9699707,32.78197479,553.9699707,113.2836838,564.0200195,136.6367798,568.9500122,136.8015747,573.9699707,138.2083282,578.9699707,143.5414581,584.0200195,151.6120453,588.9500122,157.6505585,593.9699707,146.8994598,598.9699707,131.8280945,603.9099731,119.361908,608.9799805,110.1588211,613.9699707,102.891037,618.9699707,92.00031281,623.9699707,78.41457367,628.9699707,65.88896179,633.9099731,51.20326996,638.9799805,40.69481659,
600,31.90664864,555,113.1134796,565.0700073,134.5012665,570,129.5518036,575,133.1912842,580,138.5696106,585.0700073,145.9215546,590,151.5999451,595,141.0787354,600,128.4051971,604.9199829,115.4300079,610,105.9205704,614.8499756,100.2104797,620,87.66981506,625,75.16023254,630,62.81315613,634.9199829,50.00734329,640,38.99679565,
601.0100098,30.64641571,556.0200195,112.0429611,565.9699707,128.4550171,571.0200195,126.4324951,576.0200195,126.9602051,581.039978,134.5215302,585.9699707,141.5472717,591.0200195,147.1918335,596.0200195,137.9469604,601.0100098,124.2649078,605.9400024,110.7652893,611.0200195,102.8961334,615.8800049,96.04096222,621.0200195,84.88617706,626.0200195,71.12582397,631.0100098,60.57689667,635.9400024,47.56097031,641.0100098,37.06526947,
602.0200195,29.62399101,557.0499878,110.1703339,567.0100098,123.6278152,572.0499878,120.956337,577.0499878,122.895195,581.9400024,127.700882,587.0100098,136.6248169,592.0499878,142.1855927,597.0499878,132.5688171,602.0200195,118.9640808,606.9500122,106.2572327,612.0499878,98.65505219,616.9099731,91.74076843,622.0499878,79.78821564,627.0499878,68.63972473,632.0200195,57.26591492,636.9500122,45.58634567,642.0200195,35.69545364,
603.039978,28.37788773,557.9400024,109.0263443,568.0499878,119.6066589,572.9400024,116.3316879,577.9400024,118.4934616,582.9799805,123.9512711,588.0499878,130.7782288,592.9400024,137.9696503,597.9400024,130.2155457,603.039978,114.2063522,607.9699707,103.1403198,612.9400024,95.51573944,617.9400024,87.25901031,622.9400024,77.47433472,627.9400024,65.22983551,633.039978,53.70778656,637.9699707,43.50640869,643.039978,33.79641342,
604.0499878,27.38915443,558.9699707,106.083046,568.9500122,114.5797043,573.9699707,111.2591934,578.9699707,112.7114563,584.0200195,118.9087677,588.9500122,128.0758209,593.9699707,134.0112915,598.9699707,125.484436,604.0499878,111.8615112,608.9799805,97.71421051,613.9699707,91.32623291,618.9699707,83.1776123,623.9699707,74.42055511,628.9699707,62.43660736,634.0499878,51.16497803,638.8400269,41.81856918,644.0499878,32.39834976,
605.0700073,26.39640427,560,104.3045578,570,111.1599808,575,106.4389114,580,107.8390121,585.0700073,114.1820297,590,125.0987091,595,129.3506775,600,121.4748459,605.0700073,107.5910645,609.8499756,95.25569153,615,87.16069794,619.8499756,80.37807465,625,71.26000214,630,59.83455276,635.0700073,49.40711212,639.8499756,40.06932449,645.0700073,31.12468338,
605.9400024,25.74065781,561.039978,102.2841797,571.0200195,106.7335815,576.0200195,103.228363,581.039978,105.2714996,585.9699707,109.8563156,591.0200195,120.8848801,596.0200195,123.9770966,601.0100098,118.8088531,605.9400024,103.0396729,610.8800049,90.9936676,616.0200195,83.05951691,620.8800049,76.97760773,626.0200195,67.68192291,631.0100098,56.77787399,635.9400024,47.24576569,640.8599854,38.27650833,645.9400024,30.38848114,
606.9500122,24.67660332,561.9400024,99.06246948,572.0499878,102.0305786,577.0499878,98.97735596,581.9400024,100.5540161,587.0100098,107.2681732,592.0499878,116.2982025,597.0499878,121.9751587,602.0200195,113.4883194,606.9500122,99.15756989,611.9099731,88.12929535,617.0499878,79.06793976,621.9099731,72.8610611,627.0499878,63.42989349,632.0200195,53.90831375,636.9500122,45.56377792,641.8800049,36.55793381,646.9500122,28.50944328,
607.9699707,23.94808578,562.9799805,96.72782898,572.9400024,98.65847778,577.9400024,94.96037292,582.9799805,96.1073761,588.0499878,103.2949677,592.9400024,113.0579834,597.9400024,117.720459,603.039978,109.7221069,607.9699707,95.05517578,612.9400024,83.97121429,617.9400024,76.60903931,622.9400024,69.87664032,627.9400024,61.8622551,633.039978,51.32901764,637.9699707,43.67838287,642.8900146,35.10120392,647.9699707,27.52719688,
608.9799805,22.68835831,564.0200195,93.43799591,573.9699707,93.83981323,578.9699707,92.38566589,584.0200195,94.17707825,588.9500122,101.2456131,593.9699707,109.3464661,598.9699707,114.0847321,604.0499878,105.7865753,608.9799805,90.63835144,613.9699707,80.55485535,618.9699707,72.83164978,623.9699707,66.57962036,628.9699707,58.83110428,634.0499878,48.84650421,638.9799805,40.82550812,643.9099731,33.5179863,648.9799805,26.19998741,
610,22.00354004,565.0700073,91.00496674,575,89.98440552,580,87.19625092,585.0700073,90.99227905,590,97.27515411,595,104.7596283,600,110.3464432,605.0700073,101.8527985,610,87.22624207,614.8499756,78.4644928,620,69.26166534,624.8499756,64.04027557,630,55.93015671,635.0700073,46.8161087,640,39.51486588,644.9199829,32.12682724,650,25.16210556,
611.0200195,20.79032898,565.9699707,87.24271393,576.0200195,86.27327728,581.039978,84.44806671,585.9699707,87.59831238,591.0200195,94.18662262,596.0200195,102.6688385,601.0100098,105.6577682,605.9400024,97.01187134,611.0200195,84.05937958,615.8800049,74.59960938,621.0200195,67.2542038,625.8800049,60.71656418,631.0100098,53.9278183,635.9400024,44.67415619,641.0100098,37.86535645,645.9400024,30.7600975,,,
612.0499878,20.22052574,567.0100098,84.52745819,577.0499878,83.23447418,581.9400024,81.27925873,587.0100098,84.62866974,592.0499878,91.0233078,597.0499878,99.45957947,602.0200195,103.2572174,606.9500122,94.90916443,612.0499878,80.84654236,616.9099731,72.14021301,622.0499878,63.6291275,626.9099731,58.17731857,632.0200195,50.7575264,636.9500122,42.64234161,642.0200195,36.38914108,646.9500122,29.27479744,,,
612.9400024,19.2894001,568.0499878,81.25699615,577.9400024,79.54829407,582.9799805,78.9058609,588.0499878,81.39390564,592.9400024,88.12449646,597.9400024,95.07752228,603.039978,99.57585907,607.9699707,90.82621002,612.9400024,77.71311188,617.9400024,69.18146515,622.9400024,61.51179504,627.9400024,55.36989975,633.039978,48.17867661,637.9699707,40.99913788,643.039978,34.75305939,647.9699707,28.11855888,,,
613.9699707,18.56986237,568.9500122,78.76264954,578.9699707,75.9814682,584.0200195,76.32691193,588.9500122,79.18889618,593.9699707,84.40279388,598.9699707,92.96486664,604.0499878,96.46243286,608.9799805,86.98238373,613.9699707,74.79495239,618.9699707,64.57063293,623.9699707,58.58586121,628.9699707,52.77181244,634.0499878,46.49452591,638.9799805,39.33058548,644.0499878,32.60587311,648.8400269,27.33465576,,,
615,17.6270752,570,75.33733368,580,73.50205231,585.0700073,73.05341339,590,76.49226379,595,83.40263367,600,89.84479523,605.0700073,93.66692352,610,83.24827576,615,71.04772949,619.8499756,62.47140503,625,55.44608307,629.8499756,51.04095078,635.0700073,43.97146988,640,37.55998993,645.0700073,31.86564064,649.8499756,25.99006844,,,
616.0200195,16.90995598,571.0200195,72.35138702,581.039978,70.51821136,585.9699707,70.55239868,591.0200195,73.99555206,596.0200195,80.56360626,601.0100098,87.08008575,605.9400024,89.60372925,611.0200195,81.25764465,616.0200195,67.42163849,620.8800049,59.82509995,626.0200195,52.62013245,630.8599854,48.5438385,635.9400024,42.22735977,641.0100098,35.70516968,645.9400024,30.51231003,650.8599854,24.82454491,,,
617.0499878,16.25072861,572.0499878,69.18498993,581.9400024,67.91664886,587.0100098,68.454216,592.0499878,71.25356293,597.0499878,78.36929321,602.0200195,84.64311218,606.9500122,86.516716,612.0499878,78.74451447,617.0499878,65.60607147,621.9099731,56.94142914,627.0499878,50.45104218,631.8800049,46.21442413,636.9500122,39.88838959,642.0200195,34.46543884,646.9500122,29.35699081,,,,,
617.9400024,15.50435448,572.9400024,67.16897583,582.9799805,65.91723633,588.0499878,66.3498764,592.9400024,69.87760925,597.9400024,75.51219177,603.039978,81.52087402,607.9699707,82.3228302,612.9400024,73.85721588,617.9400024,63.19812012,622.9400024,54.41830444,627.9400024,48.32606506,632.8900146,43.9815712,637.9699707,38.59555054,643.039978,32.81853485,647.9699707,28.09867859,,,,,
618.9699707,14.86269188,573.9699707,64.52124786,584.0200195,63.86191559,588.9500122,63.58496094,593.9699707,68.42977905,598.9699707,73.00608826,604.0499878,78.86395264,608.9799805,79.55094147,613.9699707,71.38294983,618.9699707,59.80169296,623.9699707,51.90744019,628.9699707,45.73002625,633.9099731,41.87447357,638.9799805,36.88333893,644.0499878,31.53979492,648.9799805,26.71048737,,,,,
620,14.27449226,575,61.75543976,585.0700073,61.50904846,590,61.98684311,595,65.13265228,600,70.81367493,605.0700073,75.21886444,610,76.70582581,615,67.94985199,620,56.86675644,624.8499756,49.9447937,630,43.77005386,634.9199829,40.07479095,640,35.52604675,645.0700073,30.10310173,650,25.72499657,,,,,
621.0200195,13.79791164,576.0200195,59.08845901,585.9699707,59.78266525,591.0200195,59.80606461,596.0200195,63.38328171,601.0100098,68.33911896,605.9400024,72.78288269,611.0200195,73.00190735,616.0200195,65.72806549,621.0200195,54.62345505,625.8800049,47.82395172,631.0100098,42.08279037,635.9400024,38.08673096,641.0100098,34.05435181,645.9400024,28.90579414,,,,,,,
622.0499878,13.06031036,577.0499878,56.91795731,587.0100098,58.02719879,592.0499878,58.81932449,597.0499878,61.29313278,602.0200195,65.33596039,606.9500122,69.73836517,612.0499878,70.01165009,617.0499878,62.80951309,622.0499878,52.34701538,626.9099731,45.66170502,632.0200195,39.63494492,636.9500122,36.23792648,642.0200195,32.25910187,646.9500122,27.63399315,,,,,,,
622.9400024,12.63962746,577.9400024,54.91476822,588.0499878,55.92189026,592.9400024,55.99092484,597.9400024,59.17890167,603.039978,63.45211792,607.9699707,67.00882721,612.9400024,67.99915314,617.9400024,60.65876007,622.9400024,50.26287079,627.9400024,43.21057892,633.039978,37.99617767,637.9699707,34.85317993,643.039978,30.86434746,647.9699707,26.49031067,,,,,,,
623.9699707,12.20019627,578.9699707,52.18778229,588.9500122,54.80213928,593.9699707,54.23854065,598.9699707,57.4275322,604.0499878,61.68043518,608.9799805,64.33573151,613.9699707,65.3337326,618.9699707,57.96520615,623.9699707,48.02672577,628.9699707,41.1802063,634.0499878,36.33777237,638.8400269,33.61548996,644.0499878,29.53643036,648.9799805,25.25909615,,,,,,,
625,11.55346775,580,50.01729584,590,52.78892136,595,53.03264999,600,55.85380173,605.0700073,58.27557755,610,62.69033813,615,62.72543335,620,55.06190109,625,45.86829758,629.8499756,39.86211395,635.0700073,34.38463211,639.8499756,31.94786644,645.0700073,28.36702728,650,24.55260277,,,,,,,
626.0200195,10.97857666,581.039978,48.34629822,591.0200195,51.28916168,596.0200195,51.93611908,601.0100098,53.78813934,605.9400024,56.80584717,611.0200195,59.62638855,616.0200195,59.94497681,621.0200195,52.9406662,626.0200195,43.91521454,630.8599854,37.77272034,635.9400024,33.29433441,640.8599854,30.70008278,645.9400024,27.40307045,,,,,,,,,
627.0499878,10.36449909,581.9400024,46.55115509,592.0499878,49.24201584,597.0499878,50.01980972,602.0200195,51.98348999,606.9500122,54.81960678,612.0499878,57.5421524,617.0499878,57.41728592,622.0499878,50.56535339,627.0499878,41.74887085,631.8800049,36.11070633,636.9500122,31.33774567,641.8800049,29.04587173,646.9500122,26.20253754,,,,,,,,,
627.9400024,9.989699364,582.9799805,44.533638,592.9400024,48.06962967,597.9400024,48.45531845,603.039978,50.25159454,607.9699707,52.8435173,612.9400024,54.66778946,617.9400024,54.88911438,622.9400024,48.93342972,627.9400024,39.50142288,632.8900146,34.30197144,637.9699707,30.37361526,642.8900146,28.09305763,647.9699707,24.9746685,,,,,,,,,
628.9699707,9.595193863,584.0200195,43.4189949,593.9699707,46.67457199,598.9699707,46.74797821,604.0499878,48.45276642,608.9799805,50.53800964,613.9699707,52.85076904,618.9699707,52.41046524,623.9699707,46.77581406,628.9699707,38.01489258,633.9099731,32.69660187,638.9799805,28.92387581,643.9099731,26.78592491,648.9799805,23.81065178,,,,,,,,,
630,9.031150818,585.0700073,41.51972198,595,45.03694153,600,44.88428497,605.0700073,46.40166092,610,48.4854126,615,50.81806183,620,49.94559479,625,44.78158569,630,36.6922226,634.9199829,31.08297348,640,27.78220749,644.9199829,25.53251839,650,22.96751785,,,,,,,,,
631.0100098,8.76181221,585.9699707,40.76313782,596.0200195,43.69410706,601.0100098,43.27742386,605.9400024,44.7076683,611.0200195,46.79492188,616.0200195,48.65759659,621.0200195,46.92670822,626.0200195,42.62387085,631.0100098,34.77987289,635.9400024,29.72967148,641.0100098,26.2132225,645.9400024,24.56484795,,,,,,,,,,,
632.0200195,8.495490074,587.0100098,39.26794052,597.0499878,42.26851654,602.0200195,42.00769043,606.9500122,43.07593536,612.0499878,44.76968384,617.0499878,46.61587906,622.0499878,45.48561096,627.0499878,40.4312973,632.0200195,33.26332855,636.9500122,28.4862175,642.0200195,25.44125938,646.9500122,23.01283836,,,,,,,,,,,
633.039978,7.88709259,588.0499878,37.98774338,597.9400024,41.21030045,603.039978,40.85865784,607.9699707,41.68677521,612.9400024,43.09967422,617.9400024,44.42366028,622.9400024,43.99065399,627.9400024,39.01034546,633.039978,31.37536049,637.9699707,27.02052879,643.039978,24.15398026,647.9699707,22.32570648,,,,,,,,,,,
634.0499878,7.588567734,588.9500122,37.08984375,598.9699707,40.08277512,604.0499878,39.29726791,608.9799805,40.00718689,613.9699707,41.50468445,618.9699707,43.00871277,623.9699707,42.15407944,628.9699707,37.13527679,634.0499878,30.18958473,638.9799805,25.69232178,644.0499878,23.25461197,648.8400269,21.16983223,,,,,,,,,,,
635.0700073,7.187732697,590,35.68378067,600,38.34957886,605.0700073,37.81580734,610,38.36153793,615,39.85221481,620,40.527565,625,40.00776291,630,35.23446274,635.0700073,28.31968307,639.8499756,24.93969154,645.0700073,22.19688797,649.8499756,20.5019722,,,,,,,,,,,
635.9400024,6.845480919,591.0200195,34.31853104,601.0100098,37.11548233,605.9400024,36.36122894,611.0200195,37.19947433,616.0200195,37.75444412,621.0200195,39.14905548,626.0200195,38.24076843,631.0100098,33.78306198,635.9400024,27.51885605,640.8599854,23.92739296,645.9400024,21.32313156,650.8599854,19.9766674,,,,,,,,,,,
636.9500122,6.658880234,592.0499878,33.27291489,602.0200195,35.2759285,606.9500122,35.06790924,612.0499878,35.45031738,617.0499878,36.39348984,622.0499878,36.99117279,627.0499878,36.4295845,632.0200195,32.10510635,636.9500122,26.34493256,641.8800049,22.72973251,646.9500122,20.59415054,,,,,,,,,,,,,
637.9699707,6.281925678,592.9400024,32.50465393,603.039978,34.08141327,607.9699707,33.81390762,612.9400024,34.06199265,617.9400024,34.84560776,622.9400024,35.43375015,627.9400024,35.03910446,633.039978,30.55415726,637.9699707,25.1415863,642.8900146,21.84366226,647.9699707,19.60998726,,,,,,,,,,,,,
638.9799805,6.0671978,593.9699707,31.31681252,604.0499878,32.83269119,608.9799805,32.13959885,613.9699707,32.69831848,618.9699707,33.26066971,623.9699707,34.12622833,628.9699707,33.26124191,634.0499878,29.19346046,638.9799805,24.25224686,643.9099731,20.6733017,648.9799805,18.57312584,,,,,,,,,,,,,
640,5.754410744,595,30.51881981,605.0700073,31.90975952,610,30.74625587,615,32.07365799,620,31.69088364,625,32.38244247,630,31.59679031,635.0700073,28.08073616,640,23.40429306,644.9199829,19.99382973,650,17.97095871,,,,,,,,,,,,,
641.0100098,5.535997391,596.0200195,29.5527153,605.9400024,30.95896721,611.0200195,29.69342232,616.0200195,30.32447815,621.0200195,30.45416832,626.0200195,30.74876404,631.0100098,30.62355042,635.9400024,26.89172554,641.0100098,21.92782021,645.9400024,19.13414383,,,,,,,,,,,,,,,
642.0200195,5.269630432,597.0499878,28.4521904,606.9500122,29.98663712,612.0499878,28.78264236,617.0499878,29.09185791,622.0499878,28.95685005,627.0499878,29.59452248,632.0200195,29.03021812,636.9500122,25.72336388,642.0200195,21.21196365,646.9500122,18.31934166,,,,,,,,,,,,,,,
643.039978,5.100323677,597.9400024,27.78742981,607.9699707,28.85476303,612.9400024,27.62015343,617.9400024,27.99653435,622.9400024,27.73270607,627.9400024,28.44083786,633.039978,27.60328484,637.9699707,24.4220562,643.039978,20.22041893,647.9699707,17.47511673,,,,,,,,,,,,,,,
644.0499878,4.836808205,598.9699707,26.72990799,608.9799805,27.48958969,613.9699707,26.51778603,618.9699707,26.47039986,623.9699707,26.58974457,628.9699707,27.230896,634.0499878,26.32187271,638.9799805,23.32077026,644.0499878,19.24848175,648.9799805,16.41156578,,,,,,,,,,,,,,,
645.0700073,4.659639359,600,25.85046768,610,26.51965523,615,25.28417778,620,25.63711166,625,25.53773308,630,25.89476204,635.0700073,25.01068115,640,22.41620255,645.0700073,18.39813232,649.8499756,16.21247482,,,,,,,,,,,,,,,
645.9400024,4.365283966,601.0100098,24.83844376,611.0200195,25.53300858,616.0200195,24.4842205,621.0200195,24.46774673,626.0200195,24.13290024,631.0100098,24.77306938,635.9400024,24.05473518,641.0100098,21.27357483,645.9400024,17.80044746,650.8599854,15.39650345,,,,,,,,,,,,,,,
646.9500122,4.267348766,602.0200195,24.14883232,612.0499878,24.50528526,617.0499878,23.51398468,622.0499878,23.31631279,627.0499878,22.60506058,632.0200195,23.63232422,636.9500122,23.11182022,642.0200195,20.35451889,646.9500122,16.89452934,,,,,,,,,,,,,,,,,
647.9699707,4.073319912,603.039978,23.09265518,612.9400024,23.43997002,617.9400024,22.33271408,622.9400024,22.29038811,627.9400024,21.87340927,633.039978,22.41428185,637.9699707,21.87252808,643.039978,19.50422096,647.9699707,16.22476196,,,,,,,,,,,,,,,,,
648.9799805,3.974315643,604.0499878,22.48342133,613.9699707,22.50607872,618.9699707,21.19697762,623.9699707,21.47017288,628.9699707,20.78545952,634.0499878,21.38173294,638.9799805,20.9195137,644.0499878,18.70135498,648.9799805,15.76539898,,,,,,,,,,,,,,,,,
650,3.781429529,605.0700073,21.75657463,615,21.48354912,620,20.20537949,625,20.35190773,630,20.06221962,635.0700073,20.30233765,640,20.12112617,645.0700073,17.96117973,650,14.98790646,,,,,,,,,,,,,,,,,
,,605.9400024,21.10344505,616.0200195,20.5039711,621.0200195,19.54315567,626.0200195,19.29955292,631.0100098,19.22872925,635.9400024,19.4940033,641.0100098,19.1432209,645.9400024,17.1486721,,,,,,,,,,,,,,,,,,,
,,606.9500122,20.33415985,617.0499878,19.7625618,622.0499878,18.64035034,627.0499878,18.45246696,632.0200195,18.41876984,636.9500122,18.68590546,642.0200195,18.37086487,646.9500122,16.27874565,,,,,,,,,,,,,,,,,,,
,,607.9699707,19.43668747,617.9400024,18.92842865,622.9400024,17.80841827,627.9400024,17.87040901,633.039978,17.4420948,637.9699707,17.9084549,643.039978,17.53185081,647.9699707,15.68566608,,,,,,,,,,,,,,,,,,,
,,608.9799805,18.71791458,618.9699707,17.97952652,623.9699707,17.07774162,628.9699707,16.92745399,634.0499878,16.5924778,638.9799805,16.9930439,644.0499878,16.64801216,648.9799805,15.056633,,,,,,,,,,,,,,,,,,,
,,610,17.83307266,620,17.2726841,625,16.28489304,630,16.09460068,635.0700073,15.9134531,640,16.32329369,645.0700073,16.02521896,650,14.34481812,,,,,,,,,,,,,,,,,,,
,,611.0200195,17.33514023,621.0200195,16.40896797,626.0200195,15.52416515,631.0100098,15.49505424,635.9400024,15.18522358,641.0100098,15.5430727,645.9400024,15.35250568,,,,,,,,,,,,,,,,,,,,,
,,612.0499878,16.63905525,622.0499878,15.90600777,627.0499878,14.71176529,632.0200195,14.47151852,636.9500122,14.5646534,642.0200195,14.90040398,646.9500122,14.81499195,,,,,,,,,,,,,,,,,,,,,
,,612.9400024,16.01376915,622.9400024,15.04240608,627.9400024,14.03800964,633.039978,13.81742382,637.9699707,13.92665291,643.039978,14.25305367,647.9699707,14.09628201,,,,,,,,,,,,,,,,,,,,,
,,613.9699707,15.26899529,623.9699707,14.55470848,628.9699707,13.52432442,634.0499878,13.28988075,638.9799805,13.23466301,644.0499878,13.6976099,648.9799805,13.5183506,,,,,,,,,,,,,,,,,,,,,
,,615,14.47725582,625,13.80560017,630,12.88270569,635.0700073,12.6836729,640,12.80523109,645.0700073,13.15165138,650,12.93016815,,,,,,,,,,,,,,,,,,,,,
,,616.0200195,13.96757793,626.0200195,13.15694523,631.0100098,12.28996849,635.9400024,12.01199245,641.0100098,12.15962696,645.9400024,12.6290741,,,,,,,,,,,,,,,,,,,,,,,
,,617.0499878,13.41075897,627.0499878,12.58447266,632.0200195,11.72883892,636.9500122,11.51532173,642.0200195,11.7196703,646.9500122,12.06507778,,,,,,,,,,,,,,,,,,,,,,,
,,617.9400024,12.95304489,627.9400024,12.16356087,633.039978,11.315341,637.9699707,11.04668617,643.039978,11.22374153,647.9699707,11.4297781,,,,,,,,,,,,,,,,,,,,,,,
,,618.9699707,12.20972633,628.9699707,11.53942585,634.0499878,10.69496822,638.9799805,10.5341835,644.0499878,10.77943611,648.9799805,10.91621685,,,,,,,,,,,,,,,,,,,,,,,
,,620,11.74507999,630,10.88251019,635.0700073,10.2643137,640,10.23090458,645.0700073,10.36459255,650,10.58259106,,,,,,,,,,,,,,,,,,,,,,,
,,621.0200195,11.14314747,631.0100098,10.37234306,635.9400024,9.85439682,641.0100098,9.877603531,645.9400024,9.895540237,,,,,,,,,,,,,,,,,,,,,,,,,
,,622.0499878,10.6168251,632.0200195,10.05848026,636.9500122,9.376362801,642.0200195,9.298442841,646.9500122,9.589504242,,,,,,,,,,,,,,,,,,,,,,,,,
,,622.9400024,10.26346779,633.039978,9.537148476,637.9699707,8.988524437,643.039978,8.703390121,647.9699707,9.131731033,,,,,,,,,,,,,,,,,,,,,,,,,
,,623.9699707,9.737066269,634.0499878,9.061471939,638.9799805,8.640392303,644.0499878,8.43490696,648.9799805,8.657867432,,,,,,,,,,,,,,,,,,,,,,,,,
,,625,9.489649773,635.0700073,8.554789543,640,8.149448395,645.0700073,8.178695679,650,8.299530029,,,,,,,,,,,,,,,,,,,,,,,,,
,,626.0200195,8.965442657,635.9400024,8.370017052,641.0100098,7.828668594,645.9400024,7.8757267,,,,,,,,,,,,,,,,,,,,,,,,,,,
,,627.0499878,8.6098032,636.9500122,7.946072102,642.0200195,7.49407959,646.9500122,7.433150291,,,,,,,,,,,,,,,,,,,,,,,,,,,
,,627.9400024,8.184389114,637.9699707,7.634036064,643.039978,7.204484463,647.9699707,7.202470303,,,,,,,,,,,,,,,,,,,,,,,,,,,
,,628.9699707,7.908443928,638.9799805,7.241027832,644.0499878,6.837657928,648.9799805,6.877896309,,,,,,,,,,,,,,,,,,,,,,,,,,,
,,630,7.634320259,640,6.962690353,645.0700073,6.572574615,650,6.564018726,,,,,,,,,,,,,,,,,,,,,,,,,,,
,,631.0100098,7.134974003,641.0100098,6.65008831,645.9400024,6.357412338,,,,,,,,,,,,,,,,,,,,,,,,,,,,,
,,632.0200195,6.80380249,642.0200195,6.404259682,646.9500122,5.979782581,,,,,,,,,,,,,,,,,,,,,,,,,,,,,
,,633.039978,6.507896423,643.039978,6.101207733,647.9699707,5.79889679,,,,,,,,,,,,,,,,,,,,,,,,,,,,,
,,634.0499878,6.281398773,644.0499878,5.761190414,648.9799805,5.601718903,,,,,,,,,,,,,,,,,,,,,,,,,,,,,
,,635.0700073,5.909768581,645.0700073,5.578506947,650,5.300097466,,,,,,,,,,,,,,,,,,,,,,,,,,,,,
,,635.9400024,5.63365078,645.9400024,5.436973572,,,,,,,,,,,,,,,,,,,,,,,,,,,,,,,
,,636.9500122,5.469833851,646.9500122,5.185624599,,,,,,,,,,,,,,,,,,,,,,,,,,,,,,,
,,637.9699707,5.253377914,647.9699707,5.058840752,,,,,,,,,,,,,,,,,,,,,,,,,,,,,,,
,,638.9799805,5.057570934,648.9799805,4.817502022,,,,,,,,,,,,,,,,,,,,,,,,,,,,,,,
,,640,4.761800766,650,4.571650505,,,,,,,,,,,,,,,,,,,,,,,,,,,,,,,
,,641.0100098,4.471387386,,,,,,,,,,,,,,,,,,,,,,,,,,,,,,,,,
,,642.0200195,4.404644489,,,,,,,,,,,,,,,,,,,,,,,,,,,,,,,,,
,,643.039978,4.211758614,,,,,,,,,,,,,,,,,,,,,,,,,,,,,,,,,
,,644.0499878,3.992938995,,,,,,,,,,,,,,,,,,,,,,,,,,,,,,,,,
,,645.0700073,3.812485218,,,,,,,,,,,,,,,,,,,,,,,,,,,,,,,,,
,,645.9400024,3.725070953,,,,,,,,,,,,,,,,,,,,,,,,,,,,,,,,,
,,646.9500122,3.536039352,,,,,,,,,,,,,,,,,,,,,,,,,,,,,,,,,
,,647.9699707,3.438899517,,,,,,,,,,,,,,,,,,,,,,,,,,,,,,,,,
,,648.9799805,3.271049738,,,,,,,,,,,,,,,,,,,,,,,,,,,,,,,,,
,,650,3.057468414,,,,,,,,,,,,,,,,,,,,,,,,,,,,,,,,,

455,
455
Collection Time: 06/05/2024 09:37:32
Operator Name  :
Scan Software Version: 1.2(147)
Parameter List :
Instrument                        Cary Eclipse
Instrument Serial Number          EL00063371
Data mode                         Fluorescence
Scan mode                         Emission
X Mode                            Wavelength (nm)
Start (nm)                        500.00
Stop (nm)                         650.00
Ex. Wavelength (nm)               455.00
Ex. Slit (nm)                     5
Em. Slit (nm)                     5
Scan rate (nm/min)                600.00
Data interval (nm)                1.0000
Averaging Time (s)                0.1000
Excitation filter                 Auto
Emission filter                   Open
PMT voltage (V)                   490
Corrected spectra                 OFF
Method Log     :
Method Name    : Default
Date/Time stamp: 06/05/2024 08:37:45
Method Modifications:
Overlayed Graphs Changed: 06/05/2024 09:19:22, Old:OFF, New:ON
PMT Volts Changed: 06/05/2024 09:19:22, Old:600, New:500
User Delta Stop Changed: 06/05/2024 09:19:22, Old: 450.00, New: 526.00
User Delta Increment Changed: 06/05/2024 09:19:22, Old:  10.00, New:   0.15
Emission PMT (V): Changed: 06/05/2024 09:19:22, Old: 600, New: 500
Excitation Wavelength Changed: 06/05/2024 09:19:22, Old: 350.00, New: 526.00
Emission Wavelength Changed: 06/05/2024 09:19:22, Old: 400.00, New: 530.00
Stop Wavelength Changed: 06/05/2024 09:19:22, Old: 600.00, New: 650.00
PMT Volts Changed: 06/05/2024 09:19:34, Old:500, New:450
Emission PMT (V): Changed: 06/05/2024 09:19:34, Old: 500, New: 450
PMT Volts Changed: 06/05/2024 09:19:46, Old:450, New:480
Emission PMT (V): Changed: 06/05/2024 09:19:46, Old: 450, New: 480
PMT Volts Changed: 06/05/2024 09:20:00, Old:480, New:490
Emission PMT (V): Changed: 06/05/2024 09:20:00, Old: 480, New: 490
Scan mode: Changed: 06/05/2024 09:20:51, Old:Emission, New:Excitation
User Delta Stop Changed: 06/05/2024 09:20:51, Old: 526.00, New: 555.00
Excitation Wavelength Changed: 06/05/2024 09:20:51, Old: 526.00, New: 400.00
Emission Wavelength Changed: 06/05/2024 09:20:51, Old: 530.00, New: 555.00
Stop Wavelength Changed: 06/05/2024 09:20:51, Old: 650.00, New: 550.00
Scan mode: Changed: 06/05/2024 09:25:21, Old:Excitation, New:Emission
Excitation Wavelength Changed: 06/05/2024 09:25:21, Old: 400.00, New: 526.00
Emission Wavelength Changed: 06/05/2024 09:25:21, Old: 555.00, New: 530.00
Stop Wavelength Changed: 06/05/2024 09:25:21, Old: 550.00, New: 650.00
Scan mode: Changed: 06/05/2024 09:29:24, Old:Emission, New:Excitation
Excitation Wavelength Changed: 06/05/2024 09:29:24, Old: 526.00, New: 530.00
Emission Wavelength Changed: 06/05/2024 09:29:24, Old: 530.00, New: 555.00
Excitation Wavelength Changed: 06/05/2024 09:33:03, Old: 530.00, New: 400.00
Stop Wavelength Changed: 06/05/2024 09:33:03, Old: 650.00, New: 550.00
Scan mode: Changed: 06/05/2024 09:35:52, Old:Excitation, New:Emission
Excitation Wavelength Changed: 06/05/2024 09:35:52, Old: 400.00, New: 450.00
Emission Wavelength Changed: 06/05/2024 09:35:52, Old: 555.00, New: 500.00
Stop Wavelength Changed: 06/05/2024 09:35:52, Old: 550.00, New: 650.00
Excitation Wavelength Changed: 06/05/2024 09:37:25, Old: 450.00, New: 455.00
End Method Modifications

450,
450
Collection Time: 06/05/2024 09:38:30
Operator Name  :
Scan Software Version: 1.2(147)
Parameter List :
Instrument                        Cary Eclipse
Instrument Serial Number          EL00063371
Data mode                         Fluorescence
Scan mode                         Emission
X Mode                            Wavelength (nm)
Start (nm)                        455.00
Stop (nm)                         650.00
Ex. Wavelength (nm)               450.00
Ex. Slit (nm)                     5
Em. Slit (nm)                     5
Scan rate (nm/min)                600.00
Data interval (nm)                1.0000
Averaging Time (s)                0.1000
Excitation filter                 Auto
Emission filter                   Open
PMT voltage (V)                   490
Corrected spectra                 OFF
Method Log     :
Method Name    : Default
Date/Time stamp: 06/05/2024 08:37:45
Method Modifications:
Overlayed Graphs Changed: 06/05/2024 09:19:22, Old:OFF, New:ON
PMT Volts Changed: 06/05/2024 09:19:22, Old:600, New:500
User Delta Stop Changed: 06/05/2024 09:19:22, Old: 450.00, New: 526.00
User Delta Increment Changed: 06/05/2024 09:19:22, Old:  10.00, New:   0.15
Emission PMT (V): Changed: 06/05/2024 09:19:22, Old: 600, New: 500
Excitation Wavelength Changed: 06/05/2024 09:19:22, Old: 350.00, New: 526.00
Emission Wavelength Changed: 06/05/2024 09:19:22, Old: 400.00, New: 530.00
Stop Wavelength Changed: 06/05/2024 09:19:22, Old: 600.00, New: 650.00
PMT Volts Changed: 06/05/2024 09:19:34, Old:500, New:450
Emission PMT (V): Changed: 06/05/2024 09:19:34, Old: 500, New: 450
PMT Volts Changed: 06/05/2024 09:19:46, Old:450, New:480
Emission PMT (V): Changed: 06/05/2024 09:19:46, Old: 450, New: 480
PMT Volts Changed: 06/05/2024 09:20:00, Old:480, New:490
Emission PMT (V): Changed: 06/05/2024 09:20:00, Old: 480, New: 490
Scan mode: Changed: 06/05/2024 09:20:51, Old:Emission, New:Excitation
User Delta Stop Changed: 06/05/2024 09:20:51, Old: 526.00, New: 555.00
Excitation Wavelength Changed: 06/05/2024 09:20:51, Old: 526.00, New: 400.00
Emission Wavelength Changed: 06/05/2024 09:20:51, Old: 530.00, New: 555.00
Stop Wavelength Changed: 06/05/2024 09:20:51, Old: 650.00, New: 550.00
Scan mode: Changed: 06/05/2024 09:25:21, Old:Excitation, New:Emission
Excitation Wavelength Changed: 06/05/2024 09:25:21, Old: 400.00, New: 526.00
Emission Wavelength Changed: 06/05/2024 09:25:21, Old: 555.00, New: 530.00
Stop Wavelength Changed: 06/05/2024 09:25:21, Old: 550.00, New: 650.00
Scan mode: Changed: 06/05/2024 09:29:24, Old:Emission, New:Excitation
Excitation Wavelength Changed: 06/05/2024 09:29:24, Old: 526.00, New: 530.00
Emission Wavelength Changed: 06/05/2024 09:29:24, Old: 530.00, New: 555.00
Excitation Wavelength Changed: 06/05/2024 09:33:03, Old: 530.00, New: 400.00
Stop Wavelength Changed: 06/05/2024 09:33:03, Old: 650.00, New: 550.00
Scan mode: Changed: 06/05/2024 09:35:52, Old:Excitation, New:Emission
Excitation Wavelength Changed: 06/05/2024 09:35:52, Old: 400.00, New: 450.00
Emission Wavelength Changed: 06/05/2024 09:35:52, Old: 555.00, New: 500.00
Stop Wavelength Changed: 06/05/2024 09:35:52, Old: 550.00, New: 650.00
Excitation Wavelength Changed: 06/05/2024 09:37:25, Old: 450.00, New: 455.00
Excitation Wavelength Changed: 06/05/2024 09:38:25, Old: 455.00, New: 450.00
Emission Wavelength Changed: 06/05/2024 09:38:25, Old: 500.00, New: 455.00
End Method Modifications

460,
460
Collection Time: 06/05/2024 09:39:33
Operator Name  :
Scan Software Version: 1.2(147)
Parameter List :
Instrument                        Cary Eclipse
Instrument Serial Number          EL00063371
Data mode                         Fluorescence
Scan mode                         Emission
X Mode                            Wavelength (nm)
Start (nm)                        465.00
Stop (nm)                         650.00
Ex. Wavelength (nm)               460.00
Ex. Slit (nm)                     5
Em. Slit (nm)                     5
Scan rate (nm/min)                600.00
Data interval (nm)                1.0000
Averaging Time (s)                0.1000
Excitation filter                 Auto
Emission filter                   Open
PMT voltage (V)                   490
Corrected spectra                 OFF
Method Log     :
Method Name    : Default
Date/Time stamp: 06/05/2024 08:37:45
Method Modifications:
Overlayed Graphs Changed: 06/05/2024 09:19:22, Old:OFF, New:ON
PMT Volts Changed: 06/05/2024 09:19:22, Old:600, New:500
User Delta Stop Changed: 06/05/2024 09:19:22, Old: 450.00, New: 526.00
User Delta Increment Changed: 06/05/2024 09:19:22, Old:  10.00, New:   0.15
Emission PMT (V): Changed: 06/05/2024 09:19:22, Old: 600, New: 500
Excitation Wavelength Changed: 06/05/2024 09:19:22, Old: 350.00, New: 526.00
Emission Wavelength Changed: 06/05/2024 09:19:22, Old: 400.00, New: 530.00
Stop Wavelength Changed: 06/05/2024 09:19:22, Old: 600.00, New: 650.00
PMT Volts Changed: 06/05/2024 09:19:34, Old:500, New:450
Emission PMT (V): Changed: 06/05/2024 09:19:34, Old: 500, New: 450
PMT Volts Changed: 06/05/2024 09:19:46, Old:450, New:480
Emission PMT (V): Changed: 06/05/2024 09:19:46, Old: 450, New: 480
PMT Volts Changed: 06/05/2024 09:20:00, Old:480, New:490
Emission PMT (V): Changed: 06/05/2024 09:20:00, Old: 480, New: 490
Scan mode: Changed: 06/05/2024 09:20:51, Old:Emission, New:Excitation
User Delta Stop Changed: 06/05/2024 09:20:51, Old: 526.00, New: 555.00
Excitation Wavelength Changed: 06/05/2024 09:20:51, Old: 526.00, New: 400.00
Emission Wavelength Changed: 06/05/2024 09:20:51, Old: 530.00, New: 555.00
Stop Wavelength Changed: 06/05/2024 09:20:51, Old: 650.00, New: 550.00
Scan mode: Changed: 06/05/2024 09:25:21, Old:Excitation, New:Emission
Excitation Wavelength Changed: 06/05/2024 09:25:21, Old: 400.00, New: 526.00
Emission Wavelength Changed: 06/05/2024 09:25:21, Old: 555.00, New: 530.00
Stop Wavelength Changed: 06/05/2024 09:25:21, Old: 550.00, New: 650.00
Scan mode: Changed: 06/05/2024 09:29:24, Old:Emission, New:Excitation
Excitation Wavelength Changed: 06/05/2024 09:29:24, Old: 526.00, New: 530.00
Emission Wavelength Changed: 06/05/2024 09:29:24, Old: 530.00, New: 555.00
Excitation Wavelength Changed: 06/05/2024 09:33:03, Old: 530.00, New: 400.00
Stop Wavelength Changed: 06/05/2024 09:33:03, Old: 650.00, New: 550.00
Scan mode: Changed: 06/05/2024 09:35:52, Old:Excitation, New:Emission
Excitation Wavelength Changed: 06/05/2024 09:35:52, Old: 400.00, New: 450.00
Emission Wavelength Changed: 06/05/2024 09:35:52, Old: 555.00, New: 500.00
Stop Wavelength Changed: 06/05/2024 09:35:52, Old: 550.00, New: 650.00
Excitation Wavelength Changed: 06/05/2024 09:37:25, Old: 450.00, New: 455.00
Excitation Wavelength Changed: 06/05/2024 09:38:25, Old: 455.00, New: 450.00
Emission Wavelength Changed: 06/05/2024 09:38:25, Old: 500.00, New: 455.00
Excitation Wavelength Changed: 06/05/2024 09:39:29, Old: 450.00, New: 460.00
Emission Wavelength Changed: 06/05/2024 09:39:29, Old: 455.00, New: 465.00
End Method Modifications

465,
465
Collection Time: 06/05/2024 09:43:20
Operator Name  :
Scan Software Version: 1.2(147)
Parameter List :
Instrument                        Cary Eclipse
Instrument Serial Number          EL00063371
Data mode                         Fluorescence
Scan mode                         Emission
X Mode                            Wavelength (nm)
Start (nm)                        470.00
Stop (nm)                         650.00
Ex. Wavelength (nm)               465.00
Ex. Slit (nm)                     5
Em. Slit (nm)                     5
Scan rate (nm/min)                600.00
Data interval (nm)                1.0000
Averaging Time (s)                0.1000
Excitation filter                 Auto
Emission filter                   Open
PMT voltage (V)                   490
Corrected spectra                 OFF
Method Log     :
Method Name    : Default
Date/Time stamp: 06/05/2024 08:37:45
Method Modifications:
Overlayed Graphs Changed: 06/05/2024 09:19:22, Old:OFF, New:ON
PMT Volts Changed: 06/05/2024 09:19:22, Old:600, New:500
User Delta Stop Changed: 06/05/2024 09:19:22, Old: 450.00, New: 526.00
User Delta Increment Changed: 06/05/2024 09:19:22, Old:  10.00, New:   0.15
Emission PMT (V): Changed: 06/05/2024 09:19:22, Old: 600, New: 500
Excitation Wavelength Changed: 06/05/2024 09:19:22, Old: 350.00, New: 526.00
Emission Wavelength Changed: 06/05/2024 09:19:22, Old: 400.00, New: 530.00
Stop Wavelength Changed: 06/05/2024 09:19:22, Old: 600.00, New: 650.00
PMT Volts Changed: 06/05/2024 09:19:34, Old:500, New:450
Emission PMT (V): Changed: 06/05/2024 09:19:34, Old: 500, New: 450
PMT Volts Changed: 06/05/2024 09:19:46, Old:450, New:480
Emission PMT (V): Changed: 06/05/2024 09:19:46, Old: 450, New: 480
PMT Volts Changed: 06/05/2024 09:20:00, Old:480, New:490
Emission PMT (V): Changed: 06/05/2024 09:20:00, Old: 480, New: 490
Scan mode: Changed: 06/05/2024 09:20:51, Old:Emission, New:Excitation
User Delta Stop Changed: 06/05/2024 09:20:51, Old: 526.00, New: 555.00
Excitation Wavelength Changed: 06/05/2024 09:20:51, Old: 526.00, New: 400.00
Emission Wavelength Changed: 06/05/2024 09:20:51, Old: 530.00, New: 555.00
Stop Wavelength Changed: 06/05/2024 09:20:51, Old: 650.00, New: 550.00
Scan mode: Changed: 06/05/2024 09:25:21, Old:Excitation, New:Emission
Excitation Wavelength Changed: 06/05/2024 09:25:21, Old: 400.00, New: 526.00
Emission Wavelength Changed: 06/05/2024 09:25:21, Old: 555.00, New: 530.00
Stop Wavelength Changed: 06/05/2024 09:25:21, Old: 550.00, New: 650.00
Scan mode: Changed: 06/05/2024 09:29:24, Old:Emission, New:Excitation
Excitation Wavelength Changed: 06/05/2024 09:29:24, Old: 526.00, New: 530.00
Emission Wavelength Changed: 06/05/2024 09:29:24, Old: 530.00, New: 555.00
Excitation Wavelength Changed: 06/05/2024 09:33:03, Old: 530.00, New: 400.00
Stop Wavelength Changed: 06/05/2024 09:33:03, Old: 650.00, New: 550.00
Scan mode: Changed: 06/05/2024 09:35:52, Old:Excitation, New:Emission
Excitation Wavelength Changed: 06/05/2024 09:35:52, Old: 400.00, New: 450.00
Emission Wavelength Changed: 06/05/2024 09:35:52, Old: 555.00, New: 500.00
Stop Wavelength Changed: 06/05/2024 09:35:52, Old: 550.00, New: 650.00
Excitation Wavelength Changed: 06/05/2024 09:37:25, Old: 450.00, New: 455.00
Excitation Wavelength Changed: 06/05/2024 09:38:25, Old: 455.00, New: 450.00
Emission Wavelength Changed: 06/05/2024 09:38:25, Old: 500.00, New: 455.00
Excitation Wavelength Changed: 06/05/2024 09:39:29, Old: 450.00, New: 460.00
Emission Wavelength Changed: 06/05/2024 09:39:29, Old: 455.00, New: 465.00
Excitation Wavelength Changed: 06/05/2024 09:43:16, Old: 460.00, New: 465.00
Emission Wavelength Changed: 06/05/2024 09:43:16, Old: 465.00, New: 470.00
End Method Modifications

470,
470
Collection Time: 06/05/2024 09:43:57
Operator Name  :
Scan Software Version: 1.2(147)
Parameter List :
Instrument                        Cary Eclipse
Instrument Serial Number          EL00063371
Data mode                         Fluorescence
Scan mode                         Emission
X Mode                            Wavelength (nm)
Start (nm)                        475.00
Stop (nm)                         650.00
Ex. Wavelength (nm)               470.00
Ex. Slit (nm)                     5
Em. Slit (nm)                     5
Scan rate (nm/min)                600.00
Data interval (nm)                1.0000
Averaging Time (s)                0.1000
Excitation filter                 Auto
Emission filter                   Open
PMT voltage (V)                   490
Corrected spectra                 OFF
Method Log     :
Method Name    : Default
Date/Time stamp: 06/05/2024 08:37:45
Method Modifications:
Overlayed Graphs Changed: 06/05/2024 09:19:22, Old:OFF, New:ON
PMT Volts Changed: 06/05/2024 09:19:22, Old:600, New:500
User Delta Stop Changed: 06/05/2024 09:19:22, Old: 450.00, New: 526.00
User Delta Increment Changed: 06/05/2024 09:19:22, Old:  10.00, New:   0.15
Emission PMT (V): Changed: 06/05/2024 09:19:22, Old: 600, New: 500
Excitation Wavelength Changed: 06/05/2024 09:19:22, Old: 350.00, New: 526.00
Emission Wavelength Changed: 06/05/2024 09:19:22, Old: 400.00, New: 530.00
Stop Wavelength Changed: 06/05/2024 09:19:22, Old: 600.00, New: 650.00
PMT Volts Changed: 06/05/2024 09:19:34, Old:500, New:450
Emission PMT (V): Changed: 06/05/2024 09:19:34, Old: 500, New: 450
PMT Volts Changed: 06/05/2024 09:19:46, Old:450, New:480
Emission PMT (V): Changed: 06/05/2024 09:19:46, Old: 450, New: 480
PMT Volts Changed: 06/05/2024 09:20:00, Old:480, New:490
Emission PMT (V): Changed: 06/05/2024 09:20:00, Old: 480, New: 490
Scan mode: Changed: 06/05/2024 09:20:51, Old:Emission, New:Excitation
User Delta Stop Changed: 06/05/2024 09:20:51, Old: 526.00, New: 555.00
Excitation Wavelength Changed: 06/05/2024 09:20:51, Old: 526.00, New: 400.00
Emission Wavelength Changed: 06/05/2024 09:20:51, Old: 530.00, New: 555.00
Stop Wavelength Changed: 06/05/2024 09:20:51, Old: 650.00, New: 550.00
Scan mode: Changed: 06/05/2024 09:25:21, Old:Excitation, New:Emission
Excitation Wavelength Changed: 06/05/2024 09:25:21, Old: 400.00, New: 526.00
Emission Wavelength Changed: 06/05/2024 09:25:21, Old: 555.00, New: 530.00
Stop Wavelength Changed: 06/05/2024 09:25:21, Old: 550.00, New: 650.00
Scan mode: Changed: 06/05/2024 09:29:24, Old:Emission, New:Excitation
Excitation Wavelength Changed: 06/05/2024 09:29:24, Old: 526.00, New: 530.00
Emission Wavelength Changed: 06/05/2024 09:29:24, Old: 530.00, New: 555.00
Excitation Wavelength Changed: 06/05/2024 09:33:03, Old: 530.00, New: 400.00
Stop Wavelength Changed: 06/05/2024 09:33:03, Old: 650.00, New: 550.00
Scan mode: Changed: 06/05/2024 09:35:52, Old:Excitation, New:Emission
Excitation Wavelength Changed: 06/05/2024 09:35:52, Old: 400.00, New: 450.00
Emission Wavelength Changed: 06/05/2024 09:35:52, Old: 555.00, New: 500.00
Stop Wavelength Changed: 06/05/2024 09:35:52, Old: 550.00, New: 650.00
Excitation Wavelength Changed: 06/05/2024 09:37:25, Old: 450.00, New: 455.00
Excitation Wavelength Changed: 06/05/2024 09:38:25, Old: 455.00, New: 450.00
Emission Wavelength Changed: 06/05/2024 09:38:25, Old: 500.00, New: 455.00
Excitation Wavelength Changed: 06/05/2024 09:39:29, Old: 450.00, New: 460.00
Emission Wavelength Changed: 06/05/2024 09:39:29, Old: 455.00, New: 465.00
Excitation Wavelength Changed: 06/05/2024 09:43:16, Old: 460.00, New: 465.00
Emission Wavelength Changed: 06/05/2024 09:43:16, Old: 465.00, New: 470.00
Excitation Wavelength Changed: 06/05/2024 09:43:53, Old: 465.00, New: 470.00
Emission Wavelength Changed: 06/05/2024 09:43:53, Old: 470.00, New: 475.00
End Method Modifications

475,
475
Collection Time: 06/05/2024 09:44:59
Operator Name  :
Scan Software Version: 1.2(147)
Parameter List :
Instrument                        Cary Eclipse
Instrument Serial Number          EL00063371
Data mode                         Fluorescence
Scan mode                         Emission
X Mode                            Wavelength (nm)
Start (nm)                        480.00
Stop (nm)                         650.00
Ex. Wavelength (nm)               475.00
Ex. Slit (nm)                     5
Em. Slit (nm)                     5
Scan rate (nm/min)                600.00
Data interval (nm)                1.0000
Averaging Time (s)                0.1000
Excitation filter                 Auto
Emission filter                   Open
PMT voltage (V)                   490
Corrected spectra                 OFF
Method Log     :
Method Name    : Default
Date/Time stamp: 06/05/2024 08:37:45
Method Modifications:
Overlayed Graphs Changed: 06/05/2024 09:19:22, Old:OFF, New:ON
PMT Volts Changed: 06/05/2024 09:19:22, Old:600, New:500
User Delta Stop Changed: 06/05/2024 09:19:22, Old: 450.00, New: 526.00
User Delta Increment Changed: 06/05/2024 09:19:22, Old:  10.00, New:   0.15
Emission PMT (V): Changed: 06/05/2024 09:19:22, Old: 600, New: 500
Excitation Wavelength Changed: 06/05/2024 09:19:22, Old: 350.00, New: 526.00
Emission Wavelength Changed: 06/05/2024 09:19:22, Old: 400.00, New: 530.00
Stop Wavelength Changed: 06/05/2024 09:19:22, Old: 600.00, New: 650.00
PMT Volts Changed: 06/05/2024 09:19:34, Old:500, New:450
Emission PMT (V): Changed: 06/05/2024 09:19:34, Old: 500, New: 450
PMT Volts Changed: 06/05/2024 09:19:46, Old:450, New:480
Emission PMT (V): Changed: 06/05/2024 09:19:46, Old: 450, New: 480
PMT Volts Changed: 06/05/2024 09:20:00, Old:480, New:490
Emission PMT (V): Changed: 06/05/2024 09:20:00, Old: 480, New: 490
Scan mode: Changed: 06/05/2024 09:20:51, Old:Emission, New:Excitation
User Delta Stop Changed: 06/05/2024 09:20:51, Old: 526.00, New: 555.00
Excitation Wavelength Changed: 06/05/2024 09:20:51, Old: 526.00, New: 400.00
Emission Wavelength Changed: 06/05/2024 09:20:51, Old: 530.00, New: 555.00
Stop Wavelength Changed: 06/05/2024 09:20:51, Old: 650.00, New: 550.00
Scan mode: Changed: 06/05/2024 09:25:21, Old:Excitation, New:Emission
Excitation Wavelength Changed: 06/05/2024 09:25:21, Old: 400.00, New: 526.00
Emission Wavelength Changed: 06/05/2024 09:25:21, Old: 555.00, New: 530.00
Stop Wavelength Changed: 06/05/2024 09:25:21, Old: 550.00, New: 650.00
Scan mode: Changed: 06/05/2024 09:29:24, Old:Emission, New:Excitation
Excitation Wavelength Changed: 06/05/2024 09:29:24, Old: 526.00, New: 530.00
Emission Wavelength Changed: 06/05/2024 09:29:24, Old: 530.00, New: 555.00
Excitation Wavelength Changed: 06/05/2024 09:33:03, Old: 530.00, New: 400.00
Stop Wavelength Changed: 06/05/2024 09:33:03, Old: 650.00, New: 550.00
Scan mode: Changed: 06/05/2024 09:35:52, Old:Excitation, New:Emission
Excitation Wavelength Changed: 06/05/2024 09:35:52, Old: 400.00, New: 450.00
Emission Wavelength Changed: 06/05/2024 09:35:52, Old: 555.00, New: 500.00
Stop Wavelength Changed: 06/05/2024 09:35:52, Old: 550.00, New: 650.00
Excitation Wavelength Changed: 06/05/2024 09:37:25, Old: 450.00, New: 455.00
Excitation Wavelength Changed: 06/05/2024 09:38:25, Old: 455.00, New: 450.00
Emission Wavelength Changed: 06/05/2024 09:38:25, Old: 500.00, New: 455.00
Excitation Wavelength Changed: 06/05/2024 09:39:29, Old: 450.00, New: 460.00
Emission Wavelength Changed: 06/05/2024 09:39:29, Old: 455.00, New: 465.00
Excitation Wavelength Changed: 06/05/2024 09:43:16, Old: 460.00, New: 465.00
Emission Wavelength Changed: 06/05/2024 09:43:16, Old: 465.00, New: 470.00
Excitation Wavelength Changed: 06/05/2024 09:43:53, Old: 465.00, New: 470.00
Emission Wavelength Changed: 06/05/2024 09:43:53, Old: 470.00, New: 475.00
Excitation Wavelength Changed: 06/05/2024 09:44:55, Old: 470.00, New: 475.00
Emission Wavelength Changed: 06/05/2024 09:44:55, Old: 475.00, New: 480.00
End Method Modifications

480,
480
Collection Time: 06/05/2024 09:45:45
Operator Name  :
Scan Software Version: 1.2(147)
Parameter List :
Instrument                        Cary Eclipse
Instrument Serial Number          EL00063371
Data mode                         Fluorescence
Scan mode                         Emission
X Mode                            Wavelength (nm)
Start (nm)                        485.00
Stop (nm)                         650.00
Ex. Wavelength (nm)               480.00
Ex. Slit (nm)                     5
Em. Slit (nm)                     5
Scan rate (nm/min)                600.00
Data interval (nm)                1.0000
Averaging Time (s)                0.1000
Excitation filter                 Auto
Emission filter                   Open
PMT voltage (V)                   490
Corrected spectra                 OFF
Method Log     :
Method Name    : Default
Date/Time stamp: 06/05/2024 08:37:45
Method Modifications:
Overlayed Graphs Changed: 06/05/2024 09:19:22, Old:OFF, New:ON
PMT Volts Changed: 06/05/2024 09:19:22, Old:600, New:500
User Delta Stop Changed: 06/05/2024 09:19:22, Old: 450.00, New: 526.00
User Delta Increment Changed: 06/05/2024 09:19:22, Old:  10.00, New:   0.15
Emission PMT (V): Changed: 06/05/2024 09:19:22, Old: 600, New: 500
Excitation Wavelength Changed: 06/05/2024 09:19:22, Old: 350.00, New: 526.00
Emission Wavelength Changed: 06/05/2024 09:19:22, Old: 400.00, New: 530.00
Stop Wavelength Changed: 06/05/2024 09:19:22, Old: 600.00, New: 650.00
PMT Volts Changed: 06/05/2024 09:19:34, Old:500, New:450
Emission PMT (V): Changed: 06/05/2024 09:19:34, Old: 500, New: 450
PMT Volts Changed: 06/05/2024 09:19:46, Old:450, New:480
Emission PMT (V): Changed: 06/05/2024 09:19:46, Old: 450, New: 480
PMT Volts Changed: 06/05/2024 09:20:00, Old:480, New:490
Emission PMT (V): Changed: 06/05/2024 09:20:00, Old: 480, New: 490
Scan mode: Changed: 06/05/2024 09:20:51, Old:Emission, New:Excitation
User Delta Stop Changed: 06/05/2024 09:20:51, Old: 526.00, New: 555.00
Excitation Wavelength Changed: 06/05/2024 09:20:51, Old: 526.00, New: 400.00
Emission Wavelength Changed: 06/05/2024 09:20:51, Old: 530.00, New: 555.00
Stop Wavelength Changed: 06/05/2024 09:20:51, Old: 650.00, New: 550.00
Scan mode: Changed: 06/05/2024 09:25:21, Old:Excitation, New:Emission
Excitation Wavelength Changed: 06/05/2024 09:25:21, Old: 400.00, New: 526.00
Emission Wavelength Changed: 06/05/2024 09:25:21, Old: 555.00, New: 530.00
Stop Wavelength Changed: 06/05/2024 09:25:21, Old: 550.00, New: 650.00
Scan mode: Changed: 06/05/2024 09:29:24, Old:Emission, New:Excitation
Excitation Wavelength Changed: 06/05/2024 09:29:24, Old: 526.00, New: 530.00
Emission Wavelength Changed: 06/05/2024 09:29:24, Old: 530.00, New: 555.00
Excitation Wavelength Changed: 06/05/2024 09:33:03, Old: 530.00, New: 400.00
Stop Wavelength Changed: 06/05/2024 09:33:03, Old: 650.00, New: 550.00
Scan mode: Changed: 06/05/2024 09:35:52, Old:Excitation, New:Emission
Excitation Wavelength Changed: 06/05/2024 09:35:52, Old: 400.00, New: 450.00
Emission Wavelength Changed: 06/05/2024 09:35:52, Old: 555.00, New: 500.00
Stop Wavelength Changed: 06/05/2024 09:35:52, Old: 550.00, New: 650.00
Excitation Wavelength Changed: 06/05/2024 09:37:25, Old: 450.00, New: 455.00
Excitation Wavelength Changed: 06/05/2024 09:38:25, Old: 455.00, New: 450.00
Emission Wavelength Changed: 06/05/2024 09:38:25, Old: 500.00, New: 455.00
Excitation Wavelength Changed: 06/05/2024 09:39:29, Old: 450.00, New: 460.00
Emission Wavelength Changed: 06/05/2024 09:39:29, Old: 455.00, New: 465.00
Excitation Wavelength Changed: 06/05/2024 09:43:16, Old: 460.00, New: 465.00
Emission Wavelength Changed: 06/05/2024 09:43:16, Old: 465.00, New: 470.00
Excitation Wavelength Changed: 06/05/2024 09:43:53, Old: 465.00, New: 470.00
Emission Wavelength Changed: 06/05/2024 09:43:53, Old: 470.00, New: 475.00
Excitation Wavelength Changed: 06/05/2024 09:44:55, Old: 470.00, New: 475.00
Emission Wavelength Changed: 06/05/2024 09:44:55, Old: 475.00, New: 480.00
Excitation Wavelength Changed: 06/05/2024 09:45:38, Old: 475.00, New: 480.00
Emission Wavelength Changed: 06/05/2024 09:45:38, Old: 480.00, New: 485.00
End Method Modifications

485,
485
Collection Time: 06/05/2024 09:47:02
Operator Name  :
Scan Software Version: 1.2(147)
Parameter List :
Instrument                        Cary Eclipse
Instrument Serial Number          EL00063371
Data mode                         Fluorescence
Scan mode                         Emission
X Mode                            Wavelength (nm)
Start (nm)                        490.00
Stop (nm)                         650.00
Ex. Wavelength (nm)               485.00
Ex. Slit (nm)                     5
Em. Slit (nm)                     5
Scan rate (nm/min)                600.00
Data interval (nm)                1.0000
Averaging Time (s)                0.1000
Excitation filter                 Auto
Emission filter                   Open
PMT voltage (V)                   490
Corrected spectra                 OFF
Method Log     :
Method Name    : Default
Date/Time stamp: 06/05/2024 08:37:45
Method Modifications:
Overlayed Graphs Changed: 06/05/2024 09:19:22, Old:OFF, New:ON
PMT Volts Changed: 06/05/2024 09:19:22, Old:600, New:500
User Delta Stop Changed: 06/05/2024 09:19:22, Old: 450.00, New: 526.00
User Delta Increment Changed: 06/05/2024 09:19:22, Old:  10.00, New:   0.15
Emission PMT (V): Changed: 06/05/2024 09:19:22, Old: 600, New: 500
Excitation Wavelength Changed: 06/05/2024 09:19:22, Old: 350.00, New: 526.00
Emission Wavelength Changed: 06/05/2024 09:19:22, Old: 400.00, New: 530.00
Stop Wavelength Changed: 06/05/2024 09:19:22, Old: 600.00, New: 650.00
PMT Volts Changed: 06/05/2024 09:19:34, Old:500, New:450
Emission PMT (V): Changed: 06/05/2024 09:19:34, Old: 500, New: 450
PMT Volts Changed: 06/05/2024 09:19:46, Old:450, New:480
Emission PMT (V): Changed: 06/05/2024 09:19:46, Old: 450, New: 480
PMT Volts Changed: 06/05/2024 09:20:00, Old:480, New:490
Emission PMT (V): Changed: 06/05/2024 09:20:00, Old: 480, New: 490
Scan mode: Changed: 06/05/2024 09:20:51, Old:Emission, New:Excitation
User Delta Stop Changed: 06/05/2024 09:20:51, Old: 526.00, New: 555.00
Excitation Wavelength Changed: 06/05/2024 09:20:51, Old: 526.00, New: 400.00
Emission Wavelength Changed: 06/05/2024 09:20:51, Old: 530.00, New: 555.00
Stop Wavelength Changed: 06/05/2024 09:20:51, Old: 650.00, New: 550.00
Scan mode: Changed: 06/05/2024 09:25:21, Old:Excitation, New:Emission
Excitation Wavelength Changed: 06/05/2024 09:25:21, Old: 400.00, New: 526.00
Emission Wavelength Changed: 06/05/2024 09:25:21, Old: 555.00, New: 530.00
Stop Wavelength Changed: 06/05/2024 09:25:21, Old: 550.00, New: 650.00
Scan mode: Changed: 06/05/2024 09:29:24, Old:Emission, New:Excitation
Excitation Wavelength Changed: 06/05/2024 09:29:24, Old: 526.00, New: 530.00
Emission Wavelength Changed: 06/05/2024 09:29:24, Old: 530.00, New: 555.00
Excitation Wavelength Changed: 06/05/2024 09:33:03, Old: 530.00, New: 400.00
Stop Wavelength Changed: 06/05/2024 09:33:03, Old: 650.00, New: 550.00
Scan mode: Changed: 06/05/2024 09:35:52, Old:Excitation, New:Emission
Excitation Wavelength Changed: 06/05/2024 09:35:52, Old: 400.00, New: 450.00
Emission Wavelength Changed: 06/05/2024 09:35:52, Old: 555.00, New: 500.00
Stop Wavelength Changed: 06/05/2024 09:35:52, Old: 550.00, New: 650.00
Excitation Wavelength Changed: 06/05/2024 09:37:25, Old: 450.00, New: 455.00
Excitation Wavelength Changed: 06/05/2024 09:38:25, Old: 455.00, New: 450.00
Emission Wavelength Changed: 06/05/2024 09:38:25, Old: 500.00, New: 455.00
Excitation Wavelength Changed: 06/05/2024 09:39:29, Old: 450.00, New: 460.00
Emission Wavelength Changed: 06/05/2024 09:39:29, Old: 455.00, New: 465.00
Excitation Wavelength Changed: 06/05/2024 09:43:16, Old: 460.00, New: 465.00
Emission Wavelength Changed: 06/05/2024 09:43:16, Old: 465.00, New: 470.00
Excitation Wavelength Changed: 06/05/2024 09:43:53, Old: 465.00, New: 470.00
Emission Wavelength Changed: 06/05/2024 09:43:53, Old: 470.00, New: 475.00
Excitation Wavelength Changed: 06/05/2024 09:44:55, Old: 470.00, New: 475.00
Emission Wavelength Changed: 06/05/2024 09:44:55, Old: 475.00, New: 480.00
Excitation Wavelength Changed: 06/05/2024 09:45:38, Old: 475.00, New: 480.00
Emission Wavelength Changed: 06/05/2024 09:45:38, Old: 480.00, New: 485.00
Excitation Wavelength Changed: 06/05/2024 09:46:54, Old: 480.00, New: 485.00
Emission Wavelength Changed: 06/05/2024 09:46:54, Old: 485.00, New: 490.00
End Method Modifications

490,
490
Collection Time: 06/05/2024 09:47:37
Operator Name  :
Scan Software Version: 1.2(147)
Parameter List :
Instrument                        Cary Eclipse
Instrument Serial Number          EL00063371
Data mode                         Fluorescence
Scan mode                         Emission
X Mode                            Wavelength (nm)
Start (nm)                        495.00
Stop (nm)                         650.00
Ex. Wavelength (nm)               490.00
Ex. Slit (nm)                     5
Em. Slit (nm)                     5
Scan rate (nm/min)                600.00
Data interval (nm)                1.0000
Averaging Time (s)                0.1000
Excitation filter                 Auto
Emission filter                   Open
PMT voltage (V)                   490
Corrected spectra                 OFF
Method Log     :
Method Name    : Default
Date/Time stamp: 06/05/2024 08:37:45
Method Modifications:
Overlayed Graphs Changed: 06/05/2024 09:19:22, Old:OFF, New:ON
PMT Volts Changed: 06/05/2024 09:19:22, Old:600, New:500
User Delta Stop Changed: 06/05/2024 09:19:22, Old: 450.00, New: 526.00
User Delta Increment Changed: 06/05/2024 09:19:22, Old:  10.00, New:   0.15
Emission PMT (V): Changed: 06/05/2024 09:19:22, Old: 600, New: 500
Excitation Wavelength Changed: 06/05/2024 09:19:22, Old: 350.00, New: 526.00
Emission Wavelength Changed: 06/05/2024 09:19:22, Old: 400.00, New: 530.00
Stop Wavelength Changed: 06/05/2024 09:19:22, Old: 600.00, New: 650.00
PMT Volts Changed: 06/05/2024 09:19:34, Old:500, New:450
Emission PMT (V): Changed: 06/05/2024 09:19:34, Old: 500, New: 450
PMT Volts Changed: 06/05/2024 09:19:46, Old:450, New:480
Emission PMT (V): Changed: 06/05/2024 09:19:46, Old: 450, New: 480
PMT Volts Changed: 06/05/2024 09:20:00, Old:480, New:490
Emission PMT (V): Changed: 06/05/2024 09:20:00, Old: 480, New: 490
Scan mode: Changed: 06/05/2024 09:20:51, Old:Emission, New:Excitation
User Delta Stop Changed: 06/05/2024 09:20:51, Old: 526.00, New: 555.00
Excitation Wavelength Changed: 06/05/2024 09:20:51, Old: 526.00, New: 400.00
Emission Wavelength Changed: 06/05/2024 09:20:51, Old: 530.00, New: 555.00
Stop Wavelength Changed: 06/05/2024 09:20:51, Old: 650.00, New: 550.00
Scan mode: Changed: 06/05/2024 09:25:21, Old:Excitation, New:Emission
Excitation Wavelength Changed: 06/05/2024 09:25:21, Old: 400.00, New: 526.00
Emission Wavelength Changed: 06/05/2024 09:25:21, Old: 555.00, New: 530.00
Stop Wavelength Changed: 06/05/2024 09:25:21, Old: 550.00, New: 650.00
Scan mode: Changed: 06/05/2024 09:29:24, Old:Emission, New:Excitation
Excitation Wavelength Changed: 06/05/2024 09:29:24, Old: 526.00, New: 530.00
Emission Wavelength Changed: 06/05/2024 09:29:24, Old: 530.00, New: 555.00
Excitation Wavelength Changed: 06/05/2024 09:33:03, Old: 530.00, New: 400.00
Stop Wavelength Changed: 06/05/2024 09:33:03, Old: 650.00, New: 550.00
Scan mode: Changed: 06/05/2024 09:35:52, Old:Excitation, New:Emission
Excitation Wavelength Changed: 06/05/2024 09:35:52, Old: 400.00, New: 450.00
Emission Wavelength Changed: 06/05/2024 09:35:52, Old: 555.00, New: 500.00
Stop Wavelength Changed: 06/05/2024 09:35:52, Old: 550.00, New: 650.00
Excitation Wavelength Changed: 06/05/2024 09:37:25, Old: 450.00, New: 455.00
Excitation Wavelength Changed: 06/05/2024 09:38:25, Old: 455.00, New: 450.00
Emission Wavelength Changed: 06/05/2024 09:38:25, Old: 500.00, New: 455.00
Excitation Wavelength Changed: 06/05/2024 09:39:29, Old: 450.00, New: 460.00
Emission Wavelength Changed: 06/05/2024 09:39:29, Old: 455.00, New: 465.00
Excitation Wavelength Changed: 06/05/2024 09:43:16, Old: 460.00, New: 465.00
Emission Wavelength Changed: 06/05/2024 09:43:16, Old: 465.00, New: 470.00
Excitation Wavelength Changed: 06/05/2024 09:43:53, Old: 465.00, New: 470.00
Emission Wavelength Changed: 06/05/2024 09:43:53, Old: 470.00, New: 475.00
Excitation Wavelength Changed: 06/05/2024 09:44:55, Old: 470.00, New: 475.00
Emission Wavelength Changed: 06/05/2024 09:44:55, Old: 475.00, New: 480.00
Excitation Wavelength Changed: 06/05/2024 09:45:38, Old: 475.00, New: 480.00
Emission Wavelength Changed: 06/05/2024 09:45:38, Old: 480.00, New: 485.00
Excitation Wavelength Changed: 06/05/2024 09:46:54, Old: 480.00, New: 485.00
Emission Wavelength Changed: 06/05/2024 09:46:54, Old: 485.00, New: 490.00
Excitation Wavelength Changed: 06/05/2024 09:47:31, Old: 485.00, New: 490.00
Emission Wavelength Changed: 06/05/2024 09:47:31, Old: 490.00, New: 495.00
End Method Modifications

495,
495
Collection Time: 06/05/2024 09:48:15
Operator Name  :
Scan Software Version: 1.2(147)
Parameter List :
Instrument                        Cary Eclipse
Instrument Serial Number          EL00063371
Data mode                         Fluorescence
Scan mode                         Emission
X Mode                            Wavelength (nm)
Start (nm)                        500.00
Stop (nm)                         650.00
Ex. Wavelength (nm)               495.00
Ex. Slit (nm)                     5
Em. Slit (nm)                     5
Scan rate (nm/min)                600.00
Data interval (nm)                1.0000
Averaging Time (s)                0.1000
Excitation filter                 Auto
Emission filter                   Open
PMT voltage (V)                   490
Corrected spectra                 OFF
Method Log     :
Method Name    : Default
Date/Time stamp: 06/05/2024 08:37:45
Method Modifications:
Overlayed Graphs Changed: 06/05/2024 09:19:22, Old:OFF, New:ON
PMT Volts Changed: 06/05/2024 09:19:22, Old:600, New:500
User Delta Stop Changed: 06/05/2024 09:19:22, Old: 450.00, New: 526.00
User Delta Increment Changed: 06/05/2024 09:19:22, Old:  10.00, New:   0.15
Emission PMT (V): Changed: 06/05/2024 09:19:22, Old: 600, New: 500
Excitation Wavelength Changed: 06/05/2024 09:19:22, Old: 350.00, New: 526.00
Emission Wavelength Changed: 06/05/2024 09:19:22, Old: 400.00, New: 530.00
Stop Wavelength Changed: 06/05/2024 09:19:22, Old: 600.00, New: 650.00
PMT Volts Changed: 06/05/2024 09:19:34, Old:500, New:450
Emission PMT (V): Changed: 06/05/2024 09:19:34, Old: 500, New: 450
PMT Volts Changed: 06/05/2024 09:19:46, Old:450, New:480
Emission PMT (V): Changed: 06/05/2024 09:19:46, Old: 450, New: 480
PMT Volts Changed: 06/05/2024 09:20:00, Old:480, New:490
Emission PMT (V): Changed: 06/05/2024 09:20:00, Old: 480, New: 490
Scan mode: Changed: 06/05/2024 09:20:51, Old:Emission, New:Excitation
User Delta Stop Changed: 06/05/2024 09:20:51, Old: 526.00, New: 555.00
Excitation Wavelength Changed: 06/05/2024 09:20:51, Old: 526.00, New: 400.00
Emission Wavelength Changed: 06/05/2024 09:20:51, Old: 530.00, New: 555.00
Stop Wavelength Changed: 06/05/2024 09:20:51, Old: 650.00, New: 550.00
Scan mode: Changed: 06/05/2024 09:25:21, Old:Excitation, New:Emission
Excitation Wavelength Changed: 06/05/2024 09:25:21, Old: 400.00, New: 526.00
Emission Wavelength Changed: 06/05/2024 09:25:21, Old: 555.00, New: 530.00
Stop Wavelength Changed: 06/05/2024 09:25:21, Old: 550.00, New: 650.00
Scan mode: Changed: 06/05/2024 09:29:24, Old:Emission, New:Excitation
Excitation Wavelength Changed: 06/05/2024 09:29:24, Old: 526.00, New: 530.00
Emission Wavelength Changed: 06/05/2024 09:29:24, Old: 530.00, New: 555.00
Excitation Wavelength Changed: 06/05/2024 09:33:03, Old: 530.00, New: 400.00
Stop Wavelength Changed: 06/05/2024 09:33:03, Old: 650.00, New: 550.00
Scan mode: Changed: 06/05/2024 09:35:52, Old:Excitation, New:Emission
Excitation Wavelength Changed: 06/05/2024 09:35:52, Old: 400.00, New: 450.00
Emission Wavelength Changed: 06/05/2024 09:35:52, Old: 555.00, New: 500.00
Stop Wavelength Changed: 06/05/2024 09:35:52, Old: 550.00, New: 650.00
Excitation Wavelength Changed: 06/05/2024 09:37:25, Old: 450.00, New: 455.00
Excitation Wavelength Changed: 06/05/2024 09:38:25, Old: 455.00, New: 450.00
Emission Wavelength Changed: 06/05/2024 09:38:25, Old: 500.00, New: 455.00
Excitation Wavelength Changed: 06/05/2024 09:39:29, Old: 450.00, New: 460.00
Emission Wavelength Changed: 06/05/2024 09:39:29, Old: 455.00, New: 465.00
Excitation Wavelength Changed: 06/05/2024 09:43:16, Old: 460.00, New: 465.00
Emission Wavelength Changed: 06/05/2024 09:43:16, Old: 465.00, New: 470.00
Excitation Wavelength Changed: 06/05/2024 09:43:53, Old: 465.00, New: 470.00
Emission Wavelength Changed: 06/05/2024 09:43:53, Old: 470.00, New: 475.00
Excitation Wavelength Changed: 06/05/2024 09:44:55, Old: 470.00, New: 475.00
Emission Wavelength Changed: 06/05/2024 09:44:55, Old: 475.00, New: 480.00
Excitation Wavelength Changed: 06/05/2024 09:45:38, Old: 475.00, New: 480.00
Emission Wavelength Changed: 06/05/2024 09:45:38, Old: 480.00, New: 485.00
Excitation Wavelength Changed: 06/05/2024 09:46:54, Old: 480.00, New: 485.00
Emission Wavelength Changed: 06/05/2024 09:46:54, Old: 485.00, New: 490.00
Excitation Wavelength Changed: 06/05/2024 09:47:31, Old: 485.00, New: 490.00
Emission Wavelength Changed: 06/05/2024 09:47:31, Old: 490.00, New: 495.00
Excitation Wavelength Changed: 06/05/2024 09:48:09, Old: 490.00, New: 495.00
Emission Wavelength Changed: 06/05/2024 09:48:09, Old: 495.00, New: 500.00
End Method Modifications

500,
500
Collection Time: 06/05/2024 09:48:56
Operator Name  :
Scan Software Version: 1.2(147)
Parameter List :
Instrument                        Cary Eclipse
Instrument Serial Number          EL00063371
Data mode                         Fluorescence
Scan mode                         Emission
X Mode                            Wavelength (nm)
Start (nm)                        505.00
Stop (nm)                         650.00
Ex. Wavelength (nm)               500.00
Ex. Slit (nm)                     5
Em. Slit (nm)                     5
Scan rate (nm/min)                600.00
Data interval (nm)                1.0000
Averaging Time (s)                0.1000
Excitation filter                 Auto
Emission filter                   Open
PMT voltage (V)                   490
Corrected spectra                 OFF
Method Log     :
Method Name    : Default
Date/Time stamp: 06/05/2024 08:37:45
Method Modifications:
Overlayed Graphs Changed: 06/05/2024 09:19:22, Old:OFF, New:ON
PMT Volts Changed: 06/05/2024 09:19:22, Old:600, New:500
User Delta Stop Changed: 06/05/2024 09:19:22, Old: 450.00, New: 526.00
User Delta Increment Changed: 06/05/2024 09:19:22, Old:  10.00, New:   0.15
Emission PMT (V): Changed: 06/05/2024 09:19:22, Old: 600, New: 500
Excitation Wavelength Changed: 06/05/2024 09:19:22, Old: 350.00, New: 526.00
Emission Wavelength Changed: 06/05/2024 09:19:22, Old: 400.00, New: 530.00
Stop Wavelength Changed: 06/05/2024 09:19:22, Old: 600.00, New: 650.00
PMT Volts Changed: 06/05/2024 09:19:34, Old:500, New:450
Emission PMT (V): Changed: 06/05/2024 09:19:34, Old: 500, New: 450
PMT Volts Changed: 06/05/2024 09:19:46, Old:450, New:480
Emission PMT (V): Changed: 06/05/2024 09:19:46, Old: 450, New: 480
PMT Volts Changed: 06/05/2024 09:20:00, Old:480, New:490
Emission PMT (V): Changed: 06/05/2024 09:20:00, Old: 480, New: 490
Scan mode: Changed: 06/05/2024 09:20:51, Old:Emission, New:Excitation
User Delta Stop Changed: 06/05/2024 09:20:51, Old: 526.00, New: 555.00
Excitation Wavelength Changed: 06/05/2024 09:20:51, Old: 526.00, New: 400.00
Emission Wavelength Changed: 06/05/2024 09:20:51, Old: 530.00, New: 555.00
Stop Wavelength Changed: 06/05/2024 09:20:51, Old: 650.00, New: 550.00
Scan mode: Changed: 06/05/2024 09:25:21, Old:Excitation, New:Emission
Excitation Wavelength Changed: 06/05/2024 09:25:21, Old: 400.00, New: 526.00
Emission Wavelength Changed: 06/05/2024 09:25:21, Old: 555.00, New: 530.00
Stop Wavelength Changed: 06/05/2024 09:25:21, Old: 550.00, New: 650.00
Scan mode: Changed: 06/05/2024 09:29:24, Old:Emission, New:Excitation
Excitation Wavelength Changed: 06/05/2024 09:29:24, Old: 526.00, New: 530.00
Emission Wavelength Changed: 06/05/2024 09:29:24, Old: 530.00, New: 555.00
Excitation Wavelength Changed: 06/05/2024 09:33:03, Old: 530.00, New: 400.00
Stop Wavelength Changed: 06/05/2024 09:33:03, Old: 650.00, New: 550.00
Scan mode: Changed: 06/05/2024 09:35:52, Old:Excitation, New:Emission
Excitation Wavelength Changed: 06/05/2024 09:35:52, Old: 400.00, New: 450.00
Emission Wavelength Changed: 06/05/2024 09:35:52, Old: 555.00, New: 500.00
Stop Wavelength Changed: 06/05/2024 09:35:52, Old: 550.00, New: 650.00
Excitation Wavelength Changed: 06/05/2024 09:37:25, Old: 450.00, New: 455.00
Excitation Wavelength Changed: 06/05/2024 09:38:25, Old: 455.00, New: 450.00
Emission Wavelength Changed: 06/05/2024 09:38:25, Old: 500.00, New: 455.00
Excitation Wavelength Changed: 06/05/2024 09:39:29, Old: 450.00, New: 460.00
Emission Wavelength Changed: 06/05/2024 09:39:29, Old: 455.00, New: 465.00
Excitation Wavelength Changed: 06/05/2024 09:43:16, Old: 460.00, New: 465.00
Emission Wavelength Changed: 06/05/2024 09:43:16, Old: 465.00, New: 470.00
Excitation Wavelength Changed: 06/05/2024 09:43:53, Old: 465.00, New: 470.00
Emission Wavelength Changed: 06/05/2024 09:43:53, Old: 470.00, New: 475.00
Excitation Wavelength Changed: 06/05/2024 09:44:55, Old: 470.00, New: 475.00
Emission Wavelength Changed: 06/05/2024 09:44:55, Old: 475.00, New: 480.00
Excitation Wavelength Changed: 06/05/2024 09:45:38, Old: 475.00, New: 480.00
Emission Wavelength Changed: 06/05/2024 09:45:38, Old: 480.00, New: 485.00
Excitation Wavelength Changed: 06/05/2024 09:46:54, Old: 480.00, New: 485.00
Emission Wavelength Changed: 06/05/2024 09:46:54, Old: 485.00, New: 490.00
Excitation Wavelength Changed: 06/05/2024 09:47:31, Old: 485.00, New: 490.00
Emission Wavelength Changed: 06/05/2024 09:47:31, Old: 490.00, New: 495.00
Excitation Wavelength Changed: 06/05/2024 09:48:09, Old: 490.00, New: 495.00
Emission Wavelength Changed: 06/05/2024 09:48:09, Old: 495.00, New: 500.00
Excitation Wavelength Changed: 06/05/2024 09:48:53, Old: 495.00, New: 500.00
Emission Wavelength Changed: 06/05/2024 09:48:53, Old: 500.00, New: 505.00
End Method Modifications

505,
505
Collection Time: 06/05/2024 09:49:42
Operator Name  :
Scan Software Version: 1.2(147)
Parameter List :
Instrument                        Cary Eclipse
Instrument Serial Number          EL00063371
Data mode                         Fluorescence
Scan mode                         Emission
X Mode                            Wavelength (nm)
Start (nm)                        510.00
Stop (nm)                         650.00
Ex. Wavelength (nm)               505.00
Ex. Slit (nm)                     5
Em. Slit (nm)                     5
Scan rate (nm/min)                600.00
Data interval (nm)                1.0000
Averaging Time (s)                0.1000
Excitation filter                 Auto
Emission filter                   Open
PMT voltage (V)                   490
Corrected spectra                 OFF
Method Log     :
Method Name    : Default
Date/Time stamp: 06/05/2024 08:37:45
Method Modifications:
Overlayed Graphs Changed: 06/05/2024 09:19:22, Old:OFF, New:ON
PMT Volts Changed: 06/05/2024 09:19:22, Old:600, New:500
User Delta Stop Changed: 06/05/2024 09:19:22, Old: 450.00, New: 526.00
User Delta Increment Changed: 06/05/2024 09:19:22, Old:  10.00, New:   0.15
Emission PMT (V): Changed: 06/05/2024 09:19:22, Old: 600, New: 500
Excitation Wavelength Changed: 06/05/2024 09:19:22, Old: 350.00, New: 526.00
Emission Wavelength Changed: 06/05/2024 09:19:22, Old: 400.00, New: 530.00
Stop Wavelength Changed: 06/05/2024 09:19:22, Old: 600.00, New: 650.00
PMT Volts Changed: 06/05/2024 09:19:34, Old:500, New:450
Emission PMT (V): Changed: 06/05/2024 09:19:34, Old: 500, New: 450
PMT Volts Changed: 06/05/2024 09:19:46, Old:450, New:480
Emission PMT (V): Changed: 06/05/2024 09:19:46, Old: 450, New: 480
PMT Volts Changed: 06/05/2024 09:20:00, Old:480, New:490
Emission PMT (V): Changed: 06/05/2024 09:20:00, Old: 480, New: 490
Scan mode: Changed: 06/05/2024 09:20:51, Old:Emission, New:Excitation
User Delta Stop Changed: 06/05/2024 09:20:51, Old: 526.00, New: 555.00
Excitation Wavelength Changed: 06/05/2024 09:20:51, Old: 526.00, New: 400.00
Emission Wavelength Changed: 06/05/2024 09:20:51, Old: 530.00, New: 555.00
Stop Wavelength Changed: 06/05/2024 09:20:51, Old: 650.00, New: 550.00
Scan mode: Changed: 06/05/2024 09:25:21, Old:Excitation, New:Emission
Excitation Wavelength Changed: 06/05/2024 09:25:21, Old: 400.00, New: 526.00
Emission Wavelength Changed: 06/05/2024 09:25:21, Old: 555.00, New: 530.00
Stop Wavelength Changed: 06/05/2024 09:25:21, Old: 550.00, New: 650.00
Scan mode: Changed: 06/05/2024 09:29:24, Old:Emission, New:Excitation
Excitation Wavelength Changed: 06/05/2024 09:29:24, Old: 526.00, New: 530.00
Emission Wavelength Changed: 06/05/2024 09:29:24, Old: 530.00, New: 555.00
Excitation Wavelength Changed: 06/05/2024 09:33:03, Old: 530.00, New: 400.00
Stop Wavelength Changed: 06/05/2024 09:33:03, Old: 650.00, New: 550.00
Scan mode: Changed: 06/05/2024 09:35:52, Old:Excitation, New:Emission
Excitation Wavelength Changed: 06/05/2024 09:35:52, Old: 400.00, New: 450.00
Emission Wavelength Changed: 06/05/2024 09:35:52, Old: 555.00, New: 500.00
Stop Wavelength Changed: 06/05/2024 09:35:52, Old: 550.00, New: 650.00
Excitation Wavelength Changed: 06/05/2024 09:37:25, Old: 450.00, New: 455.00
Excitation Wavelength Changed: 06/05/2024 09:38:25, Old: 455.00, New: 450.00
Emission Wavelength Changed: 06/05/2024 09:38:25, Old: 500.00, New: 455.00
Excitation Wavelength Changed: 06/05/2024 09:39:29, Old: 450.00, New: 460.00
Emission Wavelength Changed: 06/05/2024 09:39:29, Old: 455.00, New: 465.00
Excitation Wavelength Changed: 06/05/2024 09:43:16, Old: 460.00, New: 465.00
Emission Wavelength Changed: 06/05/2024 09:43:16, Old: 465.00, New: 470.00
Excitation Wavelength Changed: 06/05/2024 09:43:53, Old: 465.00, New: 470.00
Emission Wavelength Changed: 06/05/2024 09:43:53, Old: 470.00, New: 475.00
Excitation Wavelength Changed: 06/05/2024 09:44:55, Old: 470.00, New: 475.00
Emission Wavelength Changed: 06/05/2024 09:44:55, Old: 475.00, New: 480.00
Excitation Wavelength Changed: 06/05/2024 09:45:38, Old: 475.00, New: 480.00
Emission Wavelength Changed: 06/05/2024 09:45:38, Old: 480.00, New: 485.00
Excitation Wavelength Changed: 06/05/2024 09:46:54, Old: 480.00, New: 485.00
Emission Wavelength Changed: 06/05/2024 09:46:54, Old: 485.00, New: 490.00
Excitation Wavelength Changed: 06/05/2024 09:47:31, Old: 485.00, New: 490.00
Emission Wavelength Changed: 06/05/2024 09:47:31, Old: 490.00, New: 495.00
Excitation Wavelength Changed: 06/05/2024 09:48:09, Old: 490.00, New: 495.00
Emission Wavelength Changed: 06/05/2024 09:48:09, Old: 495.00, New: 500.00
Excitation Wavelength Changed: 06/05/2024 09:48:53, Old: 495.00, New: 500.00
Emission Wavelength Changed: 06/05/2024 09:48:53, Old: 500.00, New: 505.00
Excitation Wavelength Changed: 06/05/2024 09:49:38, Old: 500.00, New: 505.00
Emission Wavelength Changed: 06/05/2024 09:49:38, Old: 505.00, New: 510.00
End Method Modifications

510,
510
Collection Time: 06/05/2024 09:50:28
Operator Name  :
Scan Software Version: 1.2(147)
Parameter List :
Instrument                        Cary Eclipse
Instrument Serial Number          EL00063371
Data mode                         Fluorescence
Scan mode                         Emission
X Mode                            Wavelength (nm)
Start (nm)                        515.00
Stop (nm)                         650.00
Ex. Wavelength (nm)               510.00
Ex. Slit (nm)                     5
Em. Slit (nm)                     5
Scan rate (nm/min)                600.00
Data interval (nm)                1.0000
Averaging Time (s)                0.1000
Excitation filter                 Auto
Emission filter                   Open
PMT voltage (V)                   490
Corrected spectra                 OFF
Method Log     :
Method Name    : Default
Date/Time stamp: 06/05/2024 08:37:45
Method Modifications:
Overlayed Graphs Changed: 06/05/2024 09:19:22, Old:OFF, New:ON
PMT Volts Changed: 06/05/2024 09:19:22, Old:600, New:500
User Delta Stop Changed: 06/05/2024 09:19:22, Old: 450.00, New: 526.00
User Delta Increment Changed: 06/05/2024 09:19:22, Old:  10.00, New:   0.15
Emission PMT (V): Changed: 06/05/2024 09:19:22, Old: 600, New: 500
Excitation Wavelength Changed: 06/05/2024 09:19:22, Old: 350.00, New: 526.00
Emission Wavelength Changed: 06/05/2024 09:19:22, Old: 400.00, New: 530.00
Stop Wavelength Changed: 06/05/2024 09:19:22, Old: 600.00, New: 650.00
PMT Volts Changed: 06/05/2024 09:19:34, Old:500, New:450
Emission PMT (V): Changed: 06/05/2024 09:19:34, Old: 500, New: 450
PMT Volts Changed: 06/05/2024 09:19:46, Old:450, New:480
Emission PMT (V): Changed: 06/05/2024 09:19:46, Old: 450, New: 480
PMT Volts Changed: 06/05/2024 09:20:00, Old:480, New:490
Emission PMT (V): Changed: 06/05/2024 09:20:00, Old: 480, New: 490
Scan mode: Changed: 06/05/2024 09:20:51, Old:Emission, New:Excitation
User Delta Stop Changed: 06/05/2024 09:20:51, Old: 526.00, New: 555.00
Excitation Wavelength Changed: 06/05/2024 09:20:51, Old: 526.00, New: 400.00
Emission Wavelength Changed: 06/05/2024 09:20:51, Old: 530.00, New: 555.00
Stop Wavelength Changed: 06/05/2024 09:20:51, Old: 650.00, New: 550.00
Scan mode: Changed: 06/05/2024 09:25:21, Old:Excitation, New:Emission
Excitation Wavelength Changed: 06/05/2024 09:25:21, Old: 400.00, New: 526.00
Emission Wavelength Changed: 06/05/2024 09:25:21, Old: 555.00, New: 530.00
Stop Wavelength Changed: 06/05/2024 09:25:21, Old: 550.00, New: 650.00
Scan mode: Changed: 06/05/2024 09:29:24, Old:Emission, New:Excitation
Excitation Wavelength Changed: 06/05/2024 09:29:24, Old: 526.00, New: 530.00
Emission Wavelength Changed: 06/05/2024 09:29:24, Old: 530.00, New: 555.00
Excitation Wavelength Changed: 06/05/2024 09:33:03, Old: 530.00, New: 400.00
Stop Wavelength Changed: 06/05/2024 09:33:03, Old: 650.00, New: 550.00
Scan mode: Changed: 06/05/2024 09:35:52, Old:Excitation, New:Emission
Excitation Wavelength Changed: 06/05/2024 09:35:52, Old: 400.00, New: 450.00
Emission Wavelength Changed: 06/05/2024 09:35:52, Old: 555.00, New: 500.00
Stop Wavelength Changed: 06/05/2024 09:35:52, Old: 550.00, New: 650.00
Excitation Wavelength Changed: 06/05/2024 09:37:25, Old: 450.00, New: 455.00
Excitation Wavelength Changed: 06/05/2024 09:38:25, Old: 455.00, New: 450.00
Emission Wavelength Changed: 06/05/2024 09:38:25, Old: 500.00, New: 455.00
Excitation Wavelength Changed: 06/05/2024 09:39:29, Old: 450.00, New: 460.00
Emission Wavelength Changed: 06/05/2024 09:39:29, Old: 455.00, New: 465.00
Excitation Wavelength Changed: 06/05/2024 09:43:16, Old: 460.00, New: 465.00
Emission Wavelength Changed: 06/05/2024 09:43:16, Old: 465.00, New: 470.00
Excitation Wavelength Changed: 06/05/2024 09:43:53, Old: 465.00, New: 470.00
Emission Wavelength Changed: 06/05/2024 09:43:53, Old: 470.00, New: 475.00
Excitation Wavelength Changed: 06/05/2024 09:44:55, Old: 470.00, New: 475.00
Emission Wavelength Changed: 06/05/2024 09:44:55, Old: 475.00, New: 480.00
Excitation Wavelength Changed: 06/05/2024 09:45:38, Old: 475.00, New: 480.00
Emission Wavelength Changed: 06/05/2024 09:45:38, Old: 480.00, New: 485.00
Excitation Wavelength Changed: 06/05/2024 09:46:54, Old: 480.00, New: 485.00
Emission Wavelength Changed: 06/05/2024 09:46:54, Old: 485.00, New: 490.00
Excitation Wavelength Changed: 06/05/2024 09:47:31, Old: 485.00, New: 490.00
Emission Wavelength Changed: 06/05/2024 09:47:31, Old: 490.00, New: 495.00
Excitation Wavelength Changed: 06/05/2024 09:48:09, Old: 490.00, New: 495.00
Emission Wavelength Changed: 06/05/2024 09:48:09, Old: 495.00, New: 500.00
Excitation Wavelength Changed: 06/05/2024 09:48:53, Old: 495.00, New: 500.00
Emission Wavelength Changed: 06/05/2024 09:48:53, Old: 500.00, New: 505.00
Excitation Wavelength Changed: 06/05/2024 09:49:38, Old: 500.00, New: 505.00
Emission Wavelength Changed: 06/05/2024 09:49:38, Old: 505.00, New: 510.00
Excitation Wavelength Changed: 06/05/2024 09:50:21, Old: 505.00, New: 510.00
Emission Wavelength Changed: 06/05/2024 09:50:21, Old: 510.00, New: 515.00
End Method Modifications

515,
515
Collection Time: 06/05/2024 09:51:08
Operator Name  :
Scan Software Version: 1.2(147)
Parameter List :
Instrument                        Cary Eclipse
Instrument Serial Number          EL00063371
Data mode                         Fluorescence
Scan mode                         Emission
X Mode                            Wavelength (nm)
Start (nm)                        520.00
Stop (nm)                         650.00
Ex. Wavelength (nm)               515.00
Ex. Slit (nm)                     5
Em. Slit (nm)                     5
Scan rate (nm/min)                600.00
Data interval (nm)                1.0000
Averaging Time (s)                0.1000
Excitation filter                 Auto
Emission filter                   Open
PMT voltage (V)                   490
Corrected spectra                 OFF
Method Log     :
Method Name    : Default
Date/Time stamp: 06/05/2024 08:37:45
Method Modifications:
Overlayed Graphs Changed: 06/05/2024 09:19:22, Old:OFF, New:ON
PMT Volts Changed: 06/05/2024 09:19:22, Old:600, New:500
User Delta Stop Changed: 06/05/2024 09:19:22, Old: 450.00, New: 526.00
User Delta Increment Changed: 06/05/2024 09:19:22, Old:  10.00, New:   0.15
Emission PMT (V): Changed: 06/05/2024 09:19:22, Old: 600, New: 500
Excitation Wavelength Changed: 06/05/2024 09:19:22, Old: 350.00, New: 526.00
Emission Wavelength Changed: 06/05/2024 09:19:22, Old: 400.00, New: 530.00
Stop Wavelength Changed: 06/05/2024 09:19:22, Old: 600.00, New: 650.00
PMT Volts Changed: 06/05/2024 09:19:34, Old:500, New:450
Emission PMT (V): Changed: 06/05/2024 09:19:34, Old: 500, New: 450
PMT Volts Changed: 06/05/2024 09:19:46, Old:450, New:480
Emission PMT (V): Changed: 06/05/2024 09:19:46, Old: 450, New: 480
PMT Volts Changed: 06/05/2024 09:20:00, Old:480, New:490
Emission PMT (V): Changed: 06/05/2024 09:20:00, Old: 480, New: 490
Scan mode: Changed: 06/05/2024 09:20:51, Old:Emission, New:Excitation
User Delta Stop Changed: 06/05/2024 09:20:51, Old: 526.00, New: 555.00
Excitation Wavelength Changed: 06/05/2024 09:20:51, Old: 526.00, New: 400.00
Emission Wavelength Changed: 06/05/2024 09:20:51, Old: 530.00, New: 555.00
Stop Wavelength Changed: 06/05/2024 09:20:51, Old: 650.00, New: 550.00
Scan mode: Changed: 06/05/2024 09:25:21, Old:Excitation, New:Emission
Excitation Wavelength Changed: 06/05/2024 09:25:21, Old: 400.00, New: 526.00
Emission Wavelength Changed: 06/05/2024 09:25:21, Old: 555.00, New: 530.00
Stop Wavelength Changed: 06/05/2024 09:25:21, Old: 550.00, New: 650.00
Scan mode: Changed: 06/05/2024 09:29:24, Old:Emission, New:Excitation
Excitation Wavelength Changed: 06/05/2024 09:29:24, Old: 526.00, New: 530.00
Emission Wavelength Changed: 06/05/2024 09:29:24, Old: 530.00, New: 555.00
Excitation Wavelength Changed: 06/05/2024 09:33:03, Old: 530.00, New: 400.00
Stop Wavelength Changed: 06/05/2024 09:33:03, Old: 650.00, New: 550.00
Scan mode: Changed: 06/05/2024 09:35:52, Old:Excitation, New:Emission
Excitation Wavelength Changed: 06/05/2024 09:35:52, Old: 400.00, New: 450.00
Emission Wavelength Changed: 06/05/2024 09:35:52, Old: 555.00, New: 500.00
Stop Wavelength Changed: 06/05/2024 09:35:52, Old: 550.00, New: 650.00
Excitation Wavelength Changed: 06/05/2024 09:37:25, Old: 450.00, New: 455.00
Excitation Wavelength Changed: 06/05/2024 09:38:25, Old: 455.00, New: 450.00
Emission Wavelength Changed: 06/05/2024 09:38:25, Old: 500.00, New: 455.00
Excitation Wavelength Changed: 06/05/2024 09:39:29, Old: 450.00, New: 460.00
Emission Wavelength Changed: 06/05/2024 09:39:29, Old: 455.00, New: 465.00
Excitation Wavelength Changed: 06/05/2024 09:43:16, Old: 460.00, New: 465.00
Emission Wavelength Changed: 06/05/2024 09:43:16, Old: 465.00, New: 470.00
Excitation Wavelength Changed: 06/05/2024 09:43:53, Old: 465.00, New: 470.00
Emission Wavelength Changed: 06/05/2024 09:43:53, Old: 470.00, New: 475.00
Excitation Wavelength Changed: 06/05/2024 09:44:55, Old: 470.00, New: 475.00
Emission Wavelength Changed: 06/05/2024 09:44:55, Old: 475.00, New: 480.00
Excitation Wavelength Changed: 06/05/2024 09:45:38, Old: 475.00, New: 480.00
Emission Wavelength Changed: 06/05/2024 09:45:38, Old: 480.00, New: 485.00
Excitation Wavelength Changed: 06/05/2024 09:46:54, Old: 480.00, New: 485.00
Emission Wavelength Changed: 06/05/2024 09:46:54, Old: 485.00, New: 490.00
Excitation Wavelength Changed: 06/05/2024 09:47:31, Old: 485.00, New: 490.00
Emission Wavelength Changed: 06/05/2024 09:47:31, Old: 490.00, New: 495.00
Excitation Wavelength Changed: 06/05/2024 09:48:09, Old: 490.00, New: 495.00
Emission Wavelength Changed: 06/05/2024 09:48:09, Old: 495.00, New: 500.00
Excitation Wavelength Changed: 06/05/2024 09:48:53, Old: 495.00, New: 500.00
Emission Wavelength Changed: 06/05/2024 09:48:53, Old: 500.00, New: 505.00
Excitation Wavelength Changed: 06/05/2024 09:49:38, Old: 500.00, New: 505.00
Emission Wavelength Changed: 06/05/2024 09:49:38, Old: 505.00, New: 510.00
Excitation Wavelength Changed: 06/05/2024 09:50:21, Old: 505.00, New: 510.00
Emission Wavelength Changed: 06/05/2024 09:50:21, Old: 510.00, New: 515.00
Excitation Wavelength Changed: 06/05/2024 09:51:04, Old: 510.00, New: 515.00
Emission Wavelength Changed: 06/05/2024 09:51:04, Old: 515.00, New: 520.00
End Method Modifications

520,
520
Collection Time: 06/05/2024 09:51:43
Operator Name  :
Scan Software Version: 1.2(147)
Parameter List :
Instrument                        Cary Eclipse
Instrument Serial Number          EL00063371
Data mode                         Fluorescence
Scan mode                         Emission
X Mode                            Wavelength (nm)
Start (nm)                        525.00
Stop (nm)                         650.00
Ex. Wavelength (nm)               520.00
Ex. Slit (nm)                     5
Em. Slit (nm)                     5
Scan rate (nm/min)                600.00
Data interval (nm)                1.0000
Averaging Time (s)                0.1000
Excitation filter                 Auto
Emission filter                   Open
PMT voltage (V)                   490
Corrected spectra                 OFF
Method Log     :
Method Name    : Default
Date/Time stamp: 06/05/2024 08:37:45
Method Modifications:
Overlayed Graphs Changed: 06/05/2024 09:19:22, Old:OFF, New:ON
PMT Volts Changed: 06/05/2024 09:19:22, Old:600, New:500
User Delta Stop Changed: 06/05/2024 09:19:22, Old: 450.00, New: 526.00
User Delta Increment Changed: 06/05/2024 09:19:22, Old:  10.00, New:   0.15
Emission PMT (V): Changed: 06/05/2024 09:19:22, Old: 600, New: 500
Excitation Wavelength Changed: 06/05/2024 09:19:22, Old: 350.00, New: 526.00
Emission Wavelength Changed: 06/05/2024 09:19:22, Old: 400.00, New: 530.00
Stop Wavelength Changed: 06/05/2024 09:19:22, Old: 600.00, New: 650.00
PMT Volts Changed: 06/05/2024 09:19:34, Old:500, New:450
Emission PMT (V): Changed: 06/05/2024 09:19:34, Old: 500, New: 450
PMT Volts Changed: 06/05/2024 09:19:46, Old:450, New:480
Emission PMT (V): Changed: 06/05/2024 09:19:46, Old: 450, New: 480
PMT Volts Changed: 06/05/2024 09:20:00, Old:480, New:490
Emission PMT (V): Changed: 06/05/2024 09:20:00, Old: 480, New: 490
Scan mode: Changed: 06/05/2024 09:20:51, Old:Emission, New:Excitation
User Delta Stop Changed: 06/05/2024 09:20:51, Old: 526.00, New: 555.00
Excitation Wavelength Changed: 06/05/2024 09:20:51, Old: 526.00, New: 400.00
Emission Wavelength Changed: 06/05/2024 09:20:51, Old: 530.00, New: 555.00
Stop Wavelength Changed: 06/05/2024 09:20:51, Old: 650.00, New: 550.00
Scan mode: Changed: 06/05/2024 09:25:21, Old:Excitation, New:Emission
Excitation Wavelength Changed: 06/05/2024 09:25:21, Old: 400.00, New: 526.00
Emission Wavelength Changed: 06/05/2024 09:25:21, Old: 555.00, New: 530.00
Stop Wavelength Changed: 06/05/2024 09:25:21, Old: 550.00, New: 650.00
Scan mode: Changed: 06/05/2024 09:29:24, Old:Emission, New:Excitation
Excitation Wavelength Changed: 06/05/2024 09:29:24, Old: 526.00, New: 530.00
Emission Wavelength Changed: 06/05/2024 09:29:24, Old: 530.00, New: 555.00
Excitation Wavelength Changed: 06/05/2024 09:33:03, Old: 530.00, New: 400.00
Stop Wavelength Changed: 06/05/2024 09:33:03, Old: 650.00, New: 550.00
Scan mode: Changed: 06/05/2024 09:35:52, Old:Excitation, New:Emission
Excitation Wavelength Changed: 06/05/2024 09:35:52, Old: 400.00, New: 450.00
Emission Wavelength Changed: 06/05/2024 09:35:52, Old: 555.00, New: 500.00
Stop Wavelength Changed: 06/05/2024 09:35:52, Old: 550.00, New: 650.00
Excitation Wavelength Changed: 06/05/2024 09:37:25, Old: 450.00, New: 455.00
Excitation Wavelength Changed: 06/05/2024 09:38:25, Old: 455.00, New: 450.00
Emission Wavelength Changed: 06/05/2024 09:38:25, Old: 500.00, New: 455.00
Excitation Wavelength Changed: 06/05/2024 09:39:29, Old: 450.00, New: 460.00
Emission Wavelength Changed: 06/05/2024 09:39:29, Old: 455.00, New: 465.00
Excitation Wavelength Changed: 06/05/2024 09:43:16, Old: 460.00, New: 465.00
Emission Wavelength Changed: 06/05/2024 09:43:16, Old: 465.00, New: 470.00
Excitation Wavelength Changed: 06/05/2024 09:43:53, Old: 465.00, New: 470.00
Emission Wavelength Changed: 06/05/2024 09:43:53, Old: 470.00, New: 475.00
Excitation Wavelength Changed: 06/05/2024 09:44:55, Old: 470.00, New: 475.00
Emission Wavelength Changed: 06/05/2024 09:44:55, Old: 475.00, New: 480.00
Excitation Wavelength Changed: 06/05/2024 09:45:38, Old: 475.00, New: 480.00
Emission Wavelength Changed: 06/05/2024 09:45:38, Old: 480.00, New: 485.00
Excitation Wavelength Changed: 06/05/2024 09:46:54, Old: 480.00, New: 485.00
Emission Wavelength Changed: 06/05/2024 09:46:54, Old: 485.00, New: 490.00
Excitation Wavelength Changed: 06/05/2024 09:47:31, Old: 485.00, New: 490.00
Emission Wavelength Changed: 06/05/2024 09:47:31, Old: 490.00, New: 495.00
Excitation Wavelength Changed: 06/05/2024 09:48:09, Old: 490.00, New: 495.00
Emission Wavelength Changed: 06/05/2024 09:48:09, Old: 495.00, New: 500.00
Excitation Wavelength Changed: 06/05/2024 09:48:53, Old: 495.00, New: 500.00
Emission Wavelength Changed: 06/05/2024 09:48:53, Old: 500.00, New: 505.00
Excitation Wavelength Changed: 06/05/2024 09:49:38, Old: 500.00, New: 505.00
Emission Wavelength Changed: 06/05/2024 09:49:38, Old: 505.00, New: 510.00
Excitation Wavelength Changed: 06/05/2024 09:50:21, Old: 505.00, New: 510.00
Emission Wavelength Changed: 06/05/2024 09:50:21, Old: 510.00, New: 515.00
Excitation Wavelength Changed: 06/05/2024 09:51:04, Old: 510.00, New: 515.00
Emission Wavelength Changed: 06/05/2024 09:51:04, Old: 515.00, New: 520.00
Excitation Wavelength Changed: 06/05/2024 09:51:40, Old: 515.00, New: 520.00
Emission Wavelength Changed: 06/05/2024 09:51:40, Old: 520.00, New: 525.00
End Method Modifications

525,
525
Collection Time: 06/05/2024 09:52:22
Operator Name  :
Scan Software Version: 1.2(147)
Parameter List :
Instrument                        Cary Eclipse
Instrument Serial Number          EL00063371
Data mode                         Fluorescence
Scan mode                         Emission
X Mode                            Wavelength (nm)
Start (nm)                        530.00
Stop (nm)                         650.00
Ex. Wavelength (nm)               525.00
Ex. Slit (nm)                     5
Em. Slit (nm)                     5
Scan rate (nm/min)                600.00
Data interval (nm)                1.0000
Averaging Time (s)                0.1000
Excitation filter                 Auto
Emission filter                   Open
PMT voltage (V)                   490
Corrected spectra                 OFF
Method Log     :
Method Name    : Default
Date/Time stamp: 06/05/2024 08:37:45
Method Modifications:
Overlayed Graphs Changed: 06/05/2024 09:19:22, Old:OFF, New:ON
PMT Volts Changed: 06/05/2024 09:19:22, Old:600, New:500
User Delta Stop Changed: 06/05/2024 09:19:22, Old: 450.00, New: 526.00
User Delta Increment Changed: 06/05/2024 09:19:22, Old:  10.00, New:   0.15
Emission PMT (V): Changed: 06/05/2024 09:19:22, Old: 600, New: 500
Excitation Wavelength Changed: 06/05/2024 09:19:22, Old: 350.00, New: 526.00
Emission Wavelength Changed: 06/05/2024 09:19:22, Old: 400.00, New: 530.00
Stop Wavelength Changed: 06/05/2024 09:19:22, Old: 600.00, New: 650.00
PMT Volts Changed: 06/05/2024 09:19:34, Old:500, New:450
Emission PMT (V): Changed: 06/05/2024 09:19:34, Old: 500, New: 450
PMT Volts Changed: 06/05/2024 09:19:46, Old:450, New:480
Emission PMT (V): Changed: 06/05/2024 09:19:46, Old: 450, New: 480
PMT Volts Changed: 06/05/2024 09:20:00, Old:480, New:490
Emission PMT (V): Changed: 06/05/2024 09:20:00, Old: 480, New: 490
Scan mode: Changed: 06/05/2024 09:20:51, Old:Emission, New:Excitation
User Delta Stop Changed: 06/05/2024 09:20:51, Old: 526.00, New: 555.00
Excitation Wavelength Changed: 06/05/2024 09:20:51, Old: 526.00, New: 400.00
Emission Wavelength Changed: 06/05/2024 09:20:51, Old: 530.00, New: 555.00
Stop Wavelength Changed: 06/05/2024 09:20:51, Old: 650.00, New: 550.00
Scan mode: Changed: 06/05/2024 09:25:21, Old:Excitation, New:Emission
Excitation Wavelength Changed: 06/05/2024 09:25:21, Old: 400.00, New: 526.00
Emission Wavelength Changed: 06/05/2024 09:25:21, Old: 555.00, New: 530.00
Stop Wavelength Changed: 06/05/2024 09:25:21, Old: 550.00, New: 650.00
Scan mode: Changed: 06/05/2024 09:29:24, Old:Emission, New:Excitation
Excitation Wavelength Changed: 06/05/2024 09:29:24, Old: 526.00, New: 530.00
Emission Wavelength Changed: 06/05/2024 09:29:24, Old: 530.00, New: 555.00
Excitation Wavelength Changed: 06/05/2024 09:33:03, Old: 530.00, New: 400.00
Stop Wavelength Changed: 06/05/2024 09:33:03, Old: 650.00, New: 550.00
Scan mode: Changed: 06/05/2024 09:35:52, Old:Excitation, New:Emission
Excitation Wavelength Changed: 06/05/2024 09:35:52, Old: 400.00, New: 450.00
Emission Wavelength Changed: 06/05/2024 09:35:52, Old: 555.00, New: 500.00
Stop Wavelength Changed: 06/05/2024 09:35:52, Old: 550.00, New: 650.00
Excitation Wavelength Changed: 06/05/2024 09:37:25, Old: 450.00, New: 455.00
Excitation Wavelength Changed: 06/05/2024 09:38:25, Old: 455.00, New: 450.00
Emission Wavelength Changed: 06/05/2024 09:38:25, Old: 500.00, New: 455.00
Excitation Wavelength Changed: 06/05/2024 09:39:29, Old: 450.00, New: 460.00
Emission Wavelength Changed: 06/05/2024 09:39:29, Old: 455.00, New: 465.00
Excitation Wavelength Changed: 06/05/2024 09:43:16, Old: 460.00, New: 465.00
Emission Wavelength Changed: 06/05/2024 09:43:16, Old: 465.00, New: 470.00
Excitation Wavelength Changed: 06/05/2024 09:43:53, Old: 465.00, New: 470.00
Emission Wavelength Changed: 06/05/2024 09:43:53, Old: 470.00, New: 475.00
Excitation Wavelength Changed: 06/05/2024 09:44:55, Old: 470.00, New: 475.00
Emission Wavelength Changed: 06/05/2024 09:44:55, Old: 475.00, New: 480.00
Excitation Wavelength Changed: 06/05/2024 09:45:38, Old: 475.00, New: 480.00
Emission Wavelength Changed: 06/05/2024 09:45:38, Old: 480.00, New: 485.00
Excitation Wavelength Changed: 06/05/2024 09:46:54, Old: 480.00, New: 485.00
Emission Wavelength Changed: 06/05/2024 09:46:54, Old: 485.00, New: 490.00
Excitation Wavelength Changed: 06/05/2024 09:47:31, Old: 485.00, New: 490.00
Emission Wavelength Changed: 06/05/2024 09:47:31, Old: 490.00, New: 495.00
Excitation Wavelength Changed: 06/05/2024 09:48:09, Old: 490.00, New: 495.00
Emission Wavelength Changed: 06/05/2024 09:48:09, Old: 495.00, New: 500.00
Excitation Wavelength Changed: 06/05/2024 09:48:53, Old: 495.00, New: 500.00
Emission Wavelength Changed: 06/05/2024 09:48:53, Old: 500.00, New: 505.00
Excitation Wavelength Changed: 06/05/2024 09:49:38, Old: 500.00, New: 505.00
Emission Wavelength Changed: 06/05/2024 09:49:38, Old: 505.00, New: 510.00
Excitation Wavelength Changed: 06/05/2024 09:50:21, Old: 505.00, New: 510.00
Emission Wavelength Changed: 06/05/2024 09:50:21, Old: 510.00, New: 515.00
Excitation Wavelength Changed: 06/05/2024 09:51:04, Old: 510.00, New: 515.00
Emission Wavelength Changed: 06/05/2024 09:51:04, Old: 515.00, New: 520.00
Excitation Wavelength Changed: 06/05/2024 09:51:40, Old: 515.00, New: 520.00
Emission Wavelength Changed: 06/05/2024 09:51:40, Old: 520.00, New: 525.00
Excitation Wavelength Changed: 06/05/2024 09:52:15, Old: 520.00, New: 525.00
Emission Wavelength Changed: 06/05/2024 09:52:15, Old: 525.00, New: 530.00
End Method Modifications

530,
530
Collection Time: 06/05/2024 09:52:54
Operator Name  :
Scan Software Version: 1.2(147)
Parameter List :
Instrument                        Cary Eclipse
Instrument Serial Number          EL00063371
Data mode                         Fluorescence
Scan mode                         Emission
X Mode                            Wavelength (nm)
Start (nm)                        535.00
Stop (nm)                         650.00
Ex. Wavelength (nm)               530.00
Ex. Slit (nm)                     5
Em. Slit (nm)                     5
Scan rate (nm/min)                600.00
Data interval (nm)                1.0000
Averaging Time (s)                0.1000
Excitation filter                 Auto
Emission filter                   Open
PMT voltage (V)                   490
Corrected spectra                 OFF
Method Log     :
Method Name    : Default
Date/Time stamp: 06/05/2024 08:37:45
Method Modifications:
Overlayed Graphs Changed: 06/05/2024 09:19:22, Old:OFF, New:ON
PMT Volts Changed: 06/05/2024 09:19:22, Old:600, New:500
User Delta Stop Changed: 06/05/2024 09:19:22, Old: 450.00, New: 526.00
User Delta Increment Changed: 06/05/2024 09:19:22, Old:  10.00, New:   0.15
Emission PMT (V): Changed: 06/05/2024 09:19:22, Old: 600, New: 500
Excitation Wavelength Changed: 06/05/2024 09:19:22, Old: 350.00, New: 526.00
Emission Wavelength Changed: 06/05/2024 09:19:22, Old: 400.00, New: 530.00
Stop Wavelength Changed: 06/05/2024 09:19:22, Old: 600.00, New: 650.00
PMT Volts Changed: 06/05/2024 09:19:34, Old:500, New:450
Emission PMT (V): Changed: 06/05/2024 09:19:34, Old: 500, New: 450
PMT Volts Changed: 06/05/2024 09:19:46, Old:450, New:480
Emission PMT (V): Changed: 06/05/2024 09:19:46, Old: 450, New: 480
PMT Volts Changed: 06/05/2024 09:20:00, Old:480, New:490
Emission PMT (V): Changed: 06/05/2024 09:20:00, Old: 480, New: 490
Scan mode: Changed: 06/05/2024 09:20:51, Old:Emission, New:Excitation
User Delta Stop Changed: 06/05/2024 09:20:51, Old: 526.00, New: 555.00
Excitation Wavelength Changed: 06/05/2024 09:20:51, Old: 526.00, New: 400.00
Emission Wavelength Changed: 06/05/2024 09:20:51, Old: 530.00, New: 555.00
Stop Wavelength Changed: 06/05/2024 09:20:51, Old: 650.00, New: 550.00
Scan mode: Changed: 06/05/2024 09:25:21, Old:Excitation, New:Emission
Excitation Wavelength Changed: 06/05/2024 09:25:21, Old: 400.00, New: 526.00
Emission Wavelength Changed: 06/05/2024 09:25:21, Old: 555.00, New: 530.00
Stop Wavelength Changed: 06/05/2024 09:25:21, Old: 550.00, New: 650.00
Scan mode: Changed: 06/05/2024 09:29:24, Old:Emission, New:Excitation
Excitation Wavelength Changed: 06/05/2024 09:29:24, Old: 526.00, New: 530.00
Emission Wavelength Changed: 06/05/2024 09:29:24, Old: 530.00, New: 555.00
Excitation Wavelength Changed: 06/05/2024 09:33:03, Old: 530.00, New: 400.00
Stop Wavelength Changed: 06/05/2024 09:33:03, Old: 650.00, New: 550.00
Scan mode: Changed: 06/05/2024 09:35:52, Old:Excitation, New:Emission
Excitation Wavelength Changed: 06/05/2024 09:35:52, Old: 400.00, New: 450.00
Emission Wavelength Changed: 06/05/2024 09:35:52, Old: 555.00, New: 500.00
Stop Wavelength Changed: 06/05/2024 09:35:52, Old: 550.00, New: 650.00
Excitation Wavelength Changed: 06/05/2024 09:37:25, Old: 450.00, New: 455.00
Excitation Wavelength Changed: 06/05/2024 09:38:25, Old: 455.00, New: 450.00
Emission Wavelength Changed: 06/05/2024 09:38:25, Old: 500.00, New: 455.00
Excitation Wavelength Changed: 06/05/2024 09:39:29, Old: 450.00, New: 460.00
Emission Wavelength Changed: 06/05/2024 09:39:29, Old: 455.00, New: 465.00
Excitation Wavelength Changed: 06/05/2024 09:43:16, Old: 460.00, New: 465.00
Emission Wavelength Changed: 06/05/2024 09:43:16, Old: 465.00, New: 470.00
Excitation Wavelength Changed: 06/05/2024 09:43:53, Old: 465.00, New: 470.00
Emission Wavelength Changed: 06/05/2024 09:43:53, Old: 470.00, New: 475.00
Excitation Wavelength Changed: 06/05/2024 09:44:55, Old: 470.00, New: 475.00
Emission Wavelength Changed: 06/05/2024 09:44:55, Old: 475.00, New: 480.00
Excitation Wavelength Changed: 06/05/2024 09:45:38, Old: 475.00, New: 480.00
Emission Wavelength Changed: 06/05/2024 09:45:38, Old: 480.00, New: 485.00
Excitation Wavelength Changed: 06/05/2024 09:46:54, Old: 480.00, New: 485.00
Emission Wavelength Changed: 06/05/2024 09:46:54, Old: 485.00, New: 490.00
Excitation Wavelength Changed: 06/05/2024 09:47:31, Old: 485.00, New: 490.00
Emission Wavelength Changed: 06/05/2024 09:47:31, Old: 490.00, New: 495.00
Excitation Wavelength Changed: 06/05/2024 09:48:09, Old: 490.00, New: 495.00
Emission Wavelength Changed: 06/05/2024 09:48:09, Old: 495.00, New: 500.00
Excitation Wavelength Changed: 06/05/2024 09:48:53, Old: 495.00, New: 500.00
Emission Wavelength Changed: 06/05/2024 09:48:53, Old: 500.00, New: 505.00
Excitation Wavelength Changed: 06/05/2024 09:49:38, Old: 500.00, New: 505.00
Emission Wavelength Changed: 06/05/2024 09:49:38, Old: 505.00, New: 510.00
Excitation Wavelength Changed: 06/05/2024 09:50:21, Old: 505.00, New: 510.00
Emission Wavelength Changed: 06/05/2024 09:50:21, Old: 510.00, New: 515.00
Excitation Wavelength Changed: 06/05/2024 09:51:04, Old: 510.00, New: 515.00
Emission Wavelength Changed: 06/05/2024 09:51:04, Old: 515.00, New: 520.00
Excitation Wavelength Changed: 06/05/2024 09:51:40, Old: 515.00, New: 520.00
Emission Wavelength Changed: 06/05/2024 09:51:40, Old: 520.00, New: 525.00
Excitation Wavelength Changed: 06/05/2024 09:52:15, Old: 520.00, New: 525.00
Emission Wavelength Changed: 06/05/2024 09:52:15, Old: 525.00, New: 530.00
Excitation Wavelength Changed: 06/05/2024 09:52:49, Old: 525.00, New: 530.00
Emission Wavelength Changed: 06/05/2024 09:52:49, Old: 530.00, New: 535.00
End Method Modifications

535,
535
Collection Time: 06/05/2024 09:53:23
Operator Name  :
Scan Software Version: 1.2(147)
Parameter List :
Instrument                        Cary Eclipse
Instrument Serial Number          EL00063371
Data mode                         Fluorescence
Scan mode                         Emission
X Mode                            Wavelength (nm)
Start (nm)                        540.00
Stop (nm)                         650.00
Ex. Wavelength (nm)               535.00
Ex. Slit (nm)                     5
Em. Slit (nm)                     5
Scan rate (nm/min)                600.00
Data interval (nm)                1.0000
Averaging Time (s)                0.1000
Excitation filter                 Auto
Emission filter                   Open
PMT voltage (V)                   490
Corrected spectra                 OFF
Method Log     :
Method Name    : Default
Date/Time stamp: 06/05/2024 08:37:45
Method Modifications:
Overlayed Graphs Changed: 06/05/2024 09:19:22, Old:OFF, New:ON
PMT Volts Changed: 06/05/2024 09:19:22, Old:600, New:500
User Delta Stop Changed: 06/05/2024 09:19:22, Old: 450.00, New: 526.00
User Delta Increment Changed: 06/05/2024 09:19:22, Old:  10.00, New:   0.15
Emission PMT (V): Changed: 06/05/2024 09:19:22, Old: 600, New: 500
Excitation Wavelength Changed: 06/05/2024 09:19:22, Old: 350.00, New: 526.00
Emission Wavelength Changed: 06/05/2024 09:19:22, Old: 400.00, New: 530.00
Stop Wavelength Changed: 06/05/2024 09:19:22, Old: 600.00, New: 650.00
PMT Volts Changed: 06/05/2024 09:19:34, Old:500, New:450
Emission PMT (V): Changed: 06/05/2024 09:19:34, Old: 500, New: 450
PMT Volts Changed: 06/05/2024 09:19:46, Old:450, New:480
Emission PMT (V): Changed: 06/05/2024 09:19:46, Old: 450, New: 480
PMT Volts Changed: 06/05/2024 09:20:00, Old:480, New:490
Emission PMT (V): Changed: 06/05/2024 09:20:00, Old: 480, New: 490
Scan mode: Changed: 06/05/2024 09:20:51, Old:Emission, New:Excitation
User Delta Stop Changed: 06/05/2024 09:20:51, Old: 526.00, New: 555.00
Excitation Wavelength Changed: 06/05/2024 09:20:51, Old: 526.00, New: 400.00
Emission Wavelength Changed: 06/05/2024 09:20:51, Old: 530.00, New: 555.00
Stop Wavelength Changed: 06/05/2024 09:20:51, Old: 650.00, New: 550.00
Scan mode: Changed: 06/05/2024 09:25:21, Old:Excitation, New:Emission
Excitation Wavelength Changed: 06/05/2024 09:25:21, Old: 400.00, New: 526.00
Emission Wavelength Changed: 06/05/2024 09:25:21, Old: 555.00, New: 530.00
Stop Wavelength Changed: 06/05/2024 09:25:21, Old: 550.00, New: 650.00
Scan mode: Changed: 06/05/2024 09:29:24, Old:Emission, New:Excitation
Excitation Wavelength Changed: 06/05/2024 09:29:24, Old: 526.00, New: 530.00
Emission Wavelength Changed: 06/05/2024 09:29:24, Old: 530.00, New: 555.00
Excitation Wavelength Changed: 06/05/2024 09:33:03, Old: 530.00, New: 400.00
Stop Wavelength Changed: 06/05/2024 09:33:03, Old: 650.00, New: 550.00
Scan mode: Changed: 06/05/2024 09:35:52, Old:Excitation, New:Emission
Excitation Wavelength Changed: 06/05/2024 09:35:52, Old: 400.00, New: 450.00
Emission Wavelength Changed: 06/05/2024 09:35:52, Old: 555.00, New: 500.00
Stop Wavelength Changed: 06/05/2024 09:35:52, Old: 550.00, New: 650.00
Excitation Wavelength Changed: 06/05/2024 09:37:25, Old: 450.00, New: 455.00
Excitation Wavelength Changed: 06/05/2024 09:38:25, Old: 455.00, New: 450.00
Emission Wavelength Changed: 06/05/2024 09:38:25, Old: 500.00, New: 455.00
Excitation Wavelength Changed: 06/05/2024 09:39:29, Old: 450.00, New: 460.00
Emission Wavelength Changed: 06/05/2024 09:39:29, Old: 455.00, New: 465.00
Excitation Wavelength Changed: 06/05/2024 09:43:16, Old: 460.00, New: 465.00
Emission Wavelength Changed: 06/05/2024 09:43:16, Old: 465.00, New: 470.00
Excitation Wavelength Changed: 06/05/2024 09:43:53, Old: 465.00, New: 470.00
Emission Wavelength Changed: 06/05/2024 09:43:53, Old: 470.00, New: 475.00
Excitation Wavelength Changed: 06/05/2024 09:44:55, Old: 470.00, New: 475.00
Emission Wavelength Changed: 06/05/2024 09:44:55, Old: 475.00, New: 480.00
Excitation Wavelength Changed: 06/05/2024 09:45:38, Old: 475.00, New: 480.00
Emission Wavelength Changed: 06/05/2024 09:45:38, Old: 480.00, New: 485.00
Excitation Wavelength Changed: 06/05/2024 09:46:54, Old: 480.00, New: 485.00
Emission Wavelength Changed: 06/05/2024 09:46:54, Old: 485.00, New: 490.00
Excitation Wavelength Changed: 06/05/2024 09:47:31, Old: 485.00, New: 490.00
Emission Wavelength Changed: 06/05/2024 09:47:31, Old: 490.00, New: 495.00
Excitation Wavelength Changed: 06/05/2024 09:48:09, Old: 490.00, New: 495.00
Emission Wavelength Changed: 06/05/2024 09:48:09, Old: 495.00, New: 500.00
Excitation Wavelength Changed: 06/05/2024 09:48:53, Old: 495.00, New: 500.00
Emission Wavelength Changed: 06/05/2024 09:48:53, Old: 500.00, New: 505.00
Excitation Wavelength Changed: 06/05/2024 09:49:38, Old: 500.00, New: 505.00
Emission Wavelength Changed: 06/05/2024 09:49:38, Old: 505.00, New: 510.00
Excitation Wavelength Changed: 06/05/2024 09:50:21, Old: 505.00, New: 510.00
Emission Wavelength Changed: 06/05/2024 09:50:21, Old: 510.00, New: 515.00
Excitation Wavelength Changed: 06/05/2024 09:51:04, Old: 510.00, New: 515.00
Emission Wavelength Changed: 06/05/2024 09:51:04, Old: 515.00, New: 520.00
Excitation Wavelength Changed: 06/05/2024 09:51:40, Old: 515.00, New: 520.00
Emission Wavelength Changed: 06/05/2024 09:51:40, Old: 520.00, New: 525.00
Excitation Wavelength Changed: 06/05/2024 09:52:15, Old: 520.00, New: 525.00
Emission Wavelength Changed: 06/05/2024 09:52:15, Old: 525.00, New: 530.00
Excitation Wavelength Changed: 06/05/2024 09:52:49, Old: 525.00, New: 530.00
Emission Wavelength Changed: 06/05/2024 09:52:49, Old: 530.00, New: 535.00
Excitation Wavelength Changed: 06/05/2024 09:53:16, Old: 530.00, New: 535.00
Emission Wavelength Changed: 06/05/2024 09:53:16, Old: 535.00, New: 540.00
End Method Modifications

